599617608636428800,1210
599617608644121088,1413
599617608651813376,1523
599617608659505664,1602
599617608667198080,1726
599617608674890368,1822
599617608682582656,1891
599617608690274944,1980
599617608697967232,2066
599617608705659520,2130
599617608713351936,2192
599617608721044224,2259
599617608728736512,2319
599617608736428800,2367
599617608744121088,2412
599617608751813376,2455
599617608759505664,2498
599617608767198080,2536
599617608774890368,2565
599617608782582656,2596
599617608790274944,2627
599617608797967232,2648
599617608805659520,2665
599617608813351936,2689
599617608821044224,2710
599617608828736512,2725
599617608836428800,2739
599617608844121088,2758
599617608851813376,2770
599617608859505664,2773
599617608867198080,2777
599617608874890368,2792
599617608882582656,2801
599617608890274944,2799
599617608897967232,2799
599617608905659520,2806
599617608913351936,2804
599617608921044224,2799
599617608928736512,2801
599617608936428800,2801
599617608944121088,2794
599617608951813376,2792
599617608959505664,2792
599617608967198080,2787
599617608974890368,2768
599617608982582656,2753
599617608990274944,2749
599617608997967232,2742
599617609005659520,2727
599617609013351936,2710
599617609021044224,2699
599617609028736512,2682
599617609036428800,2651
599617609044121088,2634
599617609051813376,2648
599617609059505664,2665
599617609067198080,2658
599617609074890368,2648
599617609082582656,2632
599617609090274944,2586
599617609097967232,2546
599617609105659520,2534
599617609113351936,2529
599617609121044224,2507
599617609128736512,2481
599617609136428800,2462
599617609144121088,2455
599617609151813376,2438
599617609159505664,2407
599617609167198080,2314
599617609174890368,2135
599617609182582656,2094
599617609190274924,2517
599617609197962112,3310
599617609205649280,3745
599617609213336448,3109
599617609221023744,2061
599617609228710912,1824
599617609236398080,2080
599617609244085248,2116
599617609251772416,2104
599617609259459584,2144
599617609267146880,2118
599617609274834048,2082
599617609282521216,2080
599617609290208384,2073
599617609297895552,2054
599617609305582848,2044
599617609313270016,2035
599617609320957184,2025
599617609328644352,2011
599617609336331520,1994
599617609344018688,1987
599617609351705984,1984
599617609359393152,1980
599617609367080320,1968
599617609374767488,1960
599617609382454656,1960
599617609390141952,1960
599617609397829120,1958
599617609405516288,1958
599617609413203456,1951
599617609420890624,1941
599617609428577920,1932
599617609436265088,1913
599617609443952256,1884
599617609451639424,1846
599617609459326592,1798
599617609467013760,1743
599617609474701056,1676
599617609482388224,1605
599617609490075392,1550
599617609497762560,1509
599617609505449728,1471
599617609513137024,1440
599617609520824192,1421
599617609528511360,1406
599617609536198528,1392
599617609543885696,1373
599617609551572864,1359
599617609559260160,1349
599617609566947328,1339
599617609574634496,1328
599617609582321664,1316
599617609590008832,1296
599617609597696128,1285
599617609605383296,1275
599617609613070464,1263
599617609620757632,1253
599617609628444800,1249
599617609636131968,1237
599617609643819264,1218
599617609651506432,1208
599617609659193600,1196
599617609666880768,1177
599617609674567936,1167
599617609682255232,1163
599617609689942400,1151
599617609697629568,1136
599617609705316736,1124
599617609713003904,1113
599617609720691200,1091
599617609728378368,1072
599617609736065536,1067
599617609743752704,1062
599617609751439908,1046
599617609759127040,1034
599617609766814208,1024
599617609774501376,1012
599617609782188672,1000
599617609789875840,991
599617609797563008,981
599617609805250176,972
599617609812937344,957
599617609820624512,938
599617609828311808,926
599617609835998976,924
599617609843686144,919
599617609851373312,910
599617609859060480,898
599617609866747776,883
599617609874434944,869
599617609882122112,855
599617609889809280,847
599617609897496448,831
599617609905183616,812
599617609912870912,821
599617609920558080,843
599617609928245248,847
599617609935932416,840
599617609943619584,826
599617609951306880,795
599617609958994048,769
599617609966681216,764
599617609974368384,757
599617609982055552,745
599617609989742848,735
599617609997430016,730
599617610005117184,721
599617610012804352,709
599617610020491520,695
599617610028178688,611
599617610035865984,441
599617610043553152,449
599617610051240320,938
599617610058927488,1734
599617610066614656,2035
599617610074301952,1242
599617610081989120,238
599617610089676288,174
599617610097363456,487
599617610105050624,511
599617610112737792,542
599617610120425088,611
599617610128112256,573
599617610135799424,551
599617610143486592,578
599617610151173760,578
599617610158861056,566
599617610166548224,578
599617610174235392,580
599617610181922560,573
599617610189609728,578
599617610197296896,587
599617610204984192,587
599617610212671360,587
599617610220358528,594
599617610228045696,599
599617610235732864,609
599617610243420160,623
599617610251107328,640
599617610258794496,649
599617610266481664,659
599617610274168832,668
599617610281856128,675
599617610289543296,673
599617610297230464,666
599617610304917632,649
599617610312604892,618
599617610320292096,575
599617610327979264,520
599617610335666432,465
599617610343353728,417
599617610351040896,379
599617610358728064,351
599617610366415232,332
599617610374102400,315
599617610381789568,305
599617610389476864,300
599617610397164032,300
599617610404851200,303
599617610412538368,300
599617610420225536,298
599617610427912832,298
599617610435600000,303
599617610443287168,303
599617610450974336,300
599617610458661504,296
599617610466348672,296
599617610474035968,296
599617610481723136,293
599617610489410304,291
599617610497097472,291
599617610504784640,289
599617610512471936,284
599617610520159104,286
599617610527846272,289
599617610535533440,281
599617610543220608,277
599617610550907904,274
599617610558595072,272
599617610566282240,267
599617610573969408,262
599617610581656576,262
599617610589343744,265
599617610597031040,257
599617610604718208,253
599617610612405376,255
599617610620092544,255
599617610627779712,248
599617610635467008,243
599617610643154176,241
599617610650841344,238
599617610658528512,241
599617610666215680,246
599617610673902848,241
599617610681590144,236
599617610689277312,234
599617610696964480,231
599617610704651648,222
599617610712338816,214
599617610720026112,205
599617610727713280,198
599617610735400448,219
599617610743087616,246
599617610750774784,253
599617610758461952,260
599617610766149248,262
599617610773836416,234
599617610781523584,205
599617610789210752,210
599617610796897920,212
599617610804585216,205
599617610812272384,203
599617610819959552,210
599617610827646720,207
599617610835333888,203
599617610843021184,188
599617610850708352,107
599617610858395520,-54
599617610866082688,-59
599617610873769876,406
599617610881457024,1210
599617610889144192,1590
599617610896831360,905
599617610904518656,-85
599617610912205824,-238
599617610919892992,28
599617610927580160,78
599617610935267328,100
599617610942954496,152
599617610950641792,133
599617610958328960,128
599617610966016128,150
599617610973703296,150
599617610981390464,148
599617610989077760,164
599617610996764928,174
599617611004452096,171
599617611012139264,176
599617611019826432,186
599617611027513600,191
599617611035200896,198
599617611042888064,207
599617611050575232,219
599617611058262400,231
599617611065949568,248
599617611073636864,272
599617611081324032,289
599617611089011200,300
599617611096698368,312
599617611104385536,322
599617611112072832,322
599617611119760000,317
599617611127447168,305
599617611135134336,284
599617611142821504,243
599617611150508672,193
599617611158195968,138
599617611165883136,90
599617611173570304,54
599617611181257472,31
599617611188944640,16
599617611196631936,11
599617611204319104,7
599617611212006272,0
599617611219693440,2
599617611227380608,9
599617611235067776,7
599617611242755072,7
599617611250442240,14
599617611258129408,19
599617611265816576,26
599617611273503744,33
599617611281191040,31
599617611288878208,28
599617611296565376,35
599617611304252544,45
599617611311939712,45
599617611319626880,50
599617611327314176,52
599617611335001344,47
599617611342688512,50
599617611350375680,59
599617611358062848,59
599617611365750144,54
599617611373437312,52
599617611381124480,52
599617611388811648,52
599617611396498816,57
599617611404186112,59
599617611411873280,57
599617611419560448,54
599617611427247616,54
599617611434934860,57
599617611442622080,57
599617611450309248,57
599617611457996416,52
599617611465683712,42
599617611473370880,38
599617611481058048,33
599617611488745216,35
599617611496432384,64
599617611504119552,93
599617611511806848,100
599617611519494016,100
599617611527181184,85
599617611534868352,62
599617611542555520,62
599617611550242816,71
599617611557929984,62
599617611565617152,57
599617611573304320,64
599617611580991488,69
599617611588678656,71
599617611596365952,69
599617611604053120,40
599617611611740288,-85
599617611619427456,-219
599617611627114624,-23
599617611634801920,661
599617611642489088,1375
599617611650176256,1208
599617611657863424,126
599617611665550592,-503
599617611673237888,-246
599617611680925056,-40
599617611688612224,-45
599617611696299392,42
599617611703986560,74
599617611711673728,33
599617611719361024,57
599617611727048192,81
599617611734735360,71
599617611742422528,81
599617611750109696,95
599617611757796992,97
599617611765484160,109
599617611773171328,124
599617611780858496,131
599617611788545664,138
599617611796232832,152
599617611803920128,169
599617611811607296,188
599617611819294464,205
599617611826981632,222
599617611834668800,246
599617611842356096,267
599617611850043264,284
599617611857730432,296
599617611865417600,300
599617611873104768,305
599617611880791936,296
599617611888479232,269
599617611896166400,229
599617611903853568,174
599617611911540736,114
599617611919227904,64
599617611926915200,26
599617611934602368,-4
599617611942289536,-28
599617611949976704,-40
599617611957663872,-42
599617611965351168,-40
599617611973038336,-42
599617611980725504,-38
599617611988412672,-31
599617611996099844,-26
599617612003787008,-19
599617612011474176,-11
599617612019161216,-9
599617612026848384,-9
599617612034535552,-4
599617612042222592,0
599617612049909760,9
599617612057596800,14
599617612065283968,16
599617612072971136,21
599617612080658176,23
599617612088345344,23
599617612096032512,28
599617612103719552,28
599617612111406720,31
599617612119093888,35
599617612126780928,35
599617612134468096,33
599617612142155264,33
599617612149842304,33
599617612157529472,38
599617612165216512,38
599617612172903680,35
599617612180590848,38
599617612188277888,40
599617612195965056,35
599617612203652224,35
599617612211339264,35
599617612219026432,28
599617612226713600,19
599617612234400640,23
599617612242087808,50
599617612249774848,76
599617612257462016,85
599617612265149184,90
599617612272836224,81
599617612280523392,59
599617612288210560,50
599617612295897600,54
599617612303584768,54
599617612311271936,50
599617612318958976,54
599617612326646144,59
599617612334333312,59
599617612342020352,64
599617612349707520,42
599617612357394560,-69
599617612365081728,-226
599617612372768896,-121
599617612380455936,492
599617612388143104,1287
599617612395830272,1368
599617612403517312,398
599617612411204480,-432
599617612418891648,-308
599617612426578688,-40
599617612434265856,-40
599617612441952896,11
599617612449640064,57
599617612457327232,21
599617612465014272,26
599617612472701440,59
599617612480388608,59
599617612488075648,57
599617612495762816,69
599617612503449984,74
599617612511137024,81
599617612518824192,93
599617612526511232,102
599617612534198400,112
599617612541885568,126
599617612549572608,138
599617612557259741,150
599617612564946944,169
599617612572634112,186
599617612580321152,205
599617612588008320,226
599617612595695488,241
599617612603382528,253
599617612611069696,262
599617612618756736,257
599617612626443904,250
599617612634131072,231
599617612641818112,195
599617612649505280,150
599617612657192448,100
599617612664879488,50
599617612672566656,9
599617612680253824,-19
599617612687940864,-40
599617612695628032,-47
599617612703315200,-45
599617612711002240,-47
599617612718689408,-50
599617612726376448,-47
599617612734063616,-40
599617612741750784,-35
599617612749437824,-31
599617612757124992,-23
599617612764812160,-19
599617612772499200,-16
599617612780186368,-14
599617612787873536,-9
599617612795560576,-2
599617612803247744,2
599617612810934784,4
599617612818621952,9
599617612826309120,16
599617612833996160,14
599617612841683328,9
599617612849370496,11
599617612857057536,16
599617612864744704,16
599617612872431872,16
599617612880118912,16
599617612887806080,14
599617612895493248,14
599617612903180288,14
599617612910867456,16
599617612918554496,19
599617612926241664,16
599617612933928832,16
599617612941615872,21
599617612949303040,23
599617612956990208,19
599617612964677248,21
599617612972364416,23
599617612980051584,16
599617612987738624,7
599617612995425792,-2
599617613003112832,-9
599617613010800000,-4
599617613018487168,21
599617613026174208,42
599617613033861376,57
599617613041548544,69
599617613049235584,62
599617613056922752,31
599617613064609920,21
599617613072296960,31
599617613079984128,31
599617613087671168,26
599617613095358336,23
599617613103045504,28
599617613110732544,33
599617613118419638,33
599617613126106752,11
599617613133793920,-100
599617613141480960,-253
599617613149168128,-131
599617613156855296,489
599617613164542336,1268
599617613172229504,1330
599617613179916544,365
599617613187603712,-441
599617613195290880,-327
599617613202977920,-76
599617613210665088,-69
599617613218352256,-16
599617613226039296,26
599617613233726464,-4
599617613241413632,4
599617613249100672,26
599617613256787840,23
599617613264475008,31
599617613272162048,52
599617613279849216,54
599617613287536256,52
599617613295223424,64
599617613302910592,78
599617613310597632,90
599617613318284800,100
599617613325971968,114
599617613333659008,126
599617613341346176,143
599617613349033344,169
599617613356720384,188
599617613364407552,203
599617613372094592,219
599617613379781760,234
599617613387468928,238
599617613395155968,238
599617613402843136,234
599617613410530304,219
599617613418217344,188
599617613425904512,138
599617613433591680,83
599617613441278720,38
599617613448965888,-2
599617613456653056,-38
599617613464340096,-59
599617613472027264,-69
599617613479714304,-74
599617613487401472,-78
599617613495088640,-83
599617613502775680,-76
599617613510462848,-66
599617613518150016,-71
599617613525837056,-71
599617613533524224,-59
599617613541211392,-45
599617613548898432,-42
599617613556585600,-45
599617613564272640,-40
599617613571959808,-33
599617613579646976,-33
599617613587334016,-31
599617613595021184,-19
599617613602708352,-19
599617613610395392,-23
599617613618082560,-14
599617613625769728,-9
599617613633456768,-11
599617613641143936,-14
599617613648830976,-11
599617613656518144,-9
599617613664205312,-4
599617613671892352,-7
599617613679579535,-11
599617613687266688,-9
599617613694953856,-4
599617613702640896,-7
599617613710328064,-7
599617613718015232,-2
599617613725702272,0
599617613733389440,-4
599617613741076480,-11
599617613748763648,-14
599617613756450816,-19
599617613764137856,-26
599617613771825024,-16
599617613779512192,11
599617613787199232,33
599617613794886400,45
599617613802573568,52
599617613810260608,31
599617613817947776,4
599617613825634944,4
599617613833321984,16
599617613841009152,14
599617613848696192,11
599617613856383360,19
599617613864070528,19
599617613871757568,19
599617613879444736,19
599617613887131904,-21
599617613894818944,-162
599617613902506112,-262
599617613910193280,23
599617613917880320,771
599617613925567488,1399
599617613933254528,1019
599617613940941696,-107
599617613948628864,-551
599617613956315904,-222
599617613964003072,-71
599617613971690240,-71
599617613979377280,21
599617613987064448,31
599617613994751616,-4
599617614002438656,21
599617614010125824,38
599617614017812992,31
599617614025500032,40
599617614033187200,54
599617614040874240,62
599617614048561408,69
599617614056248576,76
599617614063935616,88
599617614071622784,102
599617614079309952,117
599617614086996992,131
599617614094684160,150
599617614102371328,164
599617614110058368,183
599617614117745536,203
599617614125432576,222
599617614133119744,236
599617614140806912,246
599617614148493952,248
599617614156181120,243
599617614163868288,231
599617614171555328,207
599617614179242496,169
599617614186929664,114
599617614194616704,57
599617614202303872,9
599617614209990912,-26
599617614217678080,-57
599617614225365248,-71
599617614233052288,-78
599617614240739432,-83
599617614248426624,-81
599617614256113792,-76
599617614263800832,-74
599617614271488000,-69
599617614279175168,-62
599617614286862208,-59
599617614294549376,-52
599617614302236416,-47
599617614309923584,-42
599617614317610752,-38
599617614325297792,-31
599617614332984960,-23
599617614340672128,-19
599617614348359168,-16
599617614356046336,-11
599617614363733504,-9
599617614371420544,-9
599617614379107712,-7
599617614386794880,-4
599617614394481920,0
599617614402169088,0
599617614409856128,-2
599617614417543296,0
599617614425230464,2
599617614432917504,2
599617614440604672,0
599617614448291840,4
599617614455978880,7
599617614463666048,2
599617614471353216,4
599617614479040256,7
599617614486727424,9
599617614494414464,7
599617614502101632,9
599617614509788800,11
599617614517475840,11
599617614525163008,11
599617614532850176,14
599617614540537216,16
599617614548224384,16
599617614555911552,14
599617614563598592,14
599617614571285760,19
599617614578972928,21
599617614586659968,19
599617614594347136,11
599617614602034176,2
599617614609721344,-4
599617614617408512,4
599617614625095552,33
599617614632782720,52
599617614640469888,62
599617614648156928,71
599617614655844096,62
599617614663531264,35
599617614671218304,26
599617614678905472,35
599617614686592512,38
599617614694279680,31
599617614701966848,31
599617614709653888,35
599617614717341056,35
599617614725028224,31
599617614732715264,11
599617614740402432,-88
599617614748089600,-246
599617614755776640,-164
599617614763463808,422
599617614771150848,1244
599617614778838016,1428
599617614786525184,539
599617614794212224,-348
599617614801899329,-322
599617614809586560,-69
599617614817273728,-64
599617614824960768,-33
599617614832647936,11
599617614840335104,-16
599617614848022144,-14
599617614855709312,11
599617614863396352,14
599617614871083520,16
599617614878770688,33
599617614886457728,38
599617614894144896,40
599617614901832064,52
599617614909519104,62
599617614917206272,69
599617614924893440,83
599617614932580480,100
599617614940267648,105
599617614947954816,119
599617614955641856,138
599617614963329024,152
599617614971016064,171
599617614978703232,193
599617614986390400,200
599617614994077440,203
599617615001764608,214
599617615009451776,214
599617615017138816,195
599617615024825984,169
599617615032513152,136
599617615040200192,85
599617615047887360,33
599617615055574400,-7
599617615063261568,-33
599617615070948736,-50
599617615078635776,-66
599617615086322944,-76
599617615094010112,-71
599617615101697152,-69
599617615109384320,-71
599617615117071488,-71
599617615124758528,-66
599617615132445696,-62
599617615140132864,-57
599617615147819904,-52
599617615155507072,-50
599617615163194112,-45
599617615170881280,-38
599617615178568448,-35
599617615186255488,-35
599617615193942656,-28
599617615201629824,-23
599617615209316864,-23
599617615217004032,-16
599617615224691200,-11
599617615232378240,-9
599617615240065408,-7
599617615247752448,-7
599617615255439616,-7
599617615263126784,-9
599617615270813824,-11
599617615278500992,-9
599617615286188160,-4
599617615293875200,-7
599617615301562368,-7
599617615309249536,-7
599617615316936576,-2
599617615324623744,0
599617615332310784,0
599617615339997952,0
599617615347685120,4
599617615355372160,9
599617615363059226,4
599617615370746496,4
599617615378433792,11
599617615386120960,14
599617615393808256,9
599617615401495552,7
599617615409182848,11
599617615416870016,14
599617615424557312,9
599617615432244608,4
599617615439931904,0
599617615447619072,-7
599617615455306368,-2
599617615462993664,26
599617615470680832,45
599617615478368128,50
599617615486055424,57
599617615493742720,52
599617615501429888,26
599617615509117184,14
599617615516804480,23
599617615524491776,26
599617615532178944,19
599617615539866240,21
599617615547553536,23
599617615555240704,21
599617615562928000,21
599617615570615296,4
599617615578302592,-105
599617615585989760,-250
599617615593677056,-119
599617615601364352,503
599617615609051648,1270
599617615616738816,1282
599617615624426112,265
599617615632113408,-523
599617615639800704,-343
599617615647487872,-88
599617615655175168,-97
599617615662862464,-19
599617615670549632,35
599617615678236928,-9
599617615685924224,0
599617615693611520,35
599617615701298688,26
599617615708985984,23
599617615716673280,45
599617615724360576,59
599617615732047744,62
599617615739735040,66
599617615747422336,78
599617615755109504,88
599617615762796800,102
599617615770484096,119
599617615778171392,136
599617615785858560,150
599617615793545856,169
599617615801233152,191
599617615808920448,207
599617615816607616,224
599617615824294912,236
599617615831982208,243
599617615839669376,241
599617615847356672,231
599617615855043968,217
599617615862731264,188
599617615870418432,143
599617615878105728,85
599617615885793024,35
599617615893480320,-9
599617615901167488,-45
599617615908854784,-69
599617615916542080,-83
599617615924229300,-90
599617615931916416,-93
599617615939603584,-93
599617615947290624,-88
599617615954977792,-78
599617615962664960,-74
599617615970352000,-74
599617615978039168,-69
599617615985726208,-59
599617615993413376,-57
599617616001100544,-52
599617616008787584,-47
599617616016474752,-42
599617616024161920,-38
599617616031848960,-31
599617616039536128,-26
599617616047223296,-21
599617616054910336,-21
599617616062597504,-16
599617616070284672,-11
599617616077971712,-11
599617616085658880,-9
599617616093345920,-11
599617616101033088,-11
599617616108720256,-11
599617616116407296,-7
599617616124094464,-7
599617616131781632,-9
599617616139468672,-9
599617616147155840,-7
599617616154843008,-4
599617616162530048,-2
599617616170217216,-2
599617616177904256,-2
599617616185591424,0
599617616193278592,-2
599617616200965632,-2
599617616208652800,2
599617616216339968,7
599617616224027008,7
599617616231714176,7
599617616239401344,7
599617616247088384,9
599617616254775552,9
599617616262462720,9
599617616270149760,9
599617616277836928,4
599617616285523968,-2
599617616293211136,-9
599617616300898304,-16
599617616308585344,4
599617616316272512,35
599617616323959680,45
599617616331646720,54
599617616339333888,62
599617616347021056,38
599617616354708096,11
599617616362395264,16
599617616370082304,23
599617616377769472,21
599617616385456640,21
599617616393143680,23
599617616400830848,23
599617616408518016,26
599617616416205056,21
599617616423892224,-38
599617616431579392,-193
599617616439266432,-257
599617616446953600,112
599617616454640768,905
599617616462327808,1466
599617616470014976,979
599617616477702016,-109
599617616485389198,-460
599617616493076608,-162
599617616500764032,-54
599617616508451456,-57
599617616516138752,2
599617616523826176,-2
599617616531513600,-21
599617616539201024,7
599617616546888448,16
599617616554575872,9
599617616562263168,21
599617616569950592,35
599617616577638016,42
599617616585325440,47
599617616593012864,57
599617616600700160,66
599617616608387584,76
599617616616075008,88
599617616623762432,105
599617616631449856,119
599617616639137280,133
599617616646824576,152
599617616654512000,171
599617616662199424,191
599617616669886848,205
599617616677574272,222
599617616685261568,229
599617616692948992,222
599617616700636416,212
599617616708323840,193
599617616716011264,157
599617616723698688,109
599617616731385984,57
599617616739073408,9
599617616746760832,-26
599617616754448256,-50
599617616762135680,-66
599617616769822976,-78
599617616777510400,-85
599617616785197824,-85
599617616792885248,-78
599617616800572672,-78
599617616808259968,-76
599617616815947392,-74
599617616823634816,-71
599617616831322240,-69
599617616839009664,-59
599617616846697088,-54
599617616854384384,-50
599617616862071808,-42
599617616869759232,-42
599617616877446656,-38
599617616885134080,-33
599617616892821376,-31
599617616900508800,-28
599617616908196224,-21
599617616915883648,-16
599617616923571072,-16
599617616931258496,-19
599617616938945792,-19
599617616946633216,-14
599617616954320640,-14
599617616962008064,-19
599617616969695488,-16
599617616977382784,-14
599617616985070208,-14
599617616992757632,-14
599617617000445056,-14
599617617008132480,-11
599617617015819904,-11
599617617023507200,-9
599617617031194624,-7
599617617038882048,-7
599617617046569439,-2
599617617054256640,0
599617617061943808,-4
599617617069630848,-2
599617617077318016,4
599617617085005184,2
599617617092692224,-2
599617617100379392,2
599617617108066432,2
599617617115753600,0
599617617123440768,4
599617617131127808,7
599617617138814976,0
599617617146502144,-4
599617617154189184,-4
599617617161876352,-9
599617617169563520,-9
599617617177250560,14
599617617184937728,42
599617617192624896,47
599617617200311936,45
599617617207999104,38
599617617215686144,16
599617617223373312,4
599617617231060480,9
599617617238747520,9
599617617246434688,4
599617617254121856,9
599617617261808896,14
599617617269496064,16
599617617277183232,14
599617617284870272,-19
599617617292557440,-140
599617617300244480,-269
599617617307931648,-85
599617617315618816,582
599617617323305856,1320
599617617330993024,1218
599617617338680192,145
599617617346367232,-544
599617617354054400,-308
599617617361741568,-90
599617617369428608,-109
599617617377115776,-26
599617617384802944,16
599617617392489984,-26
599617617400177152,-11
599617617407864192,19
599617617415551360,11
599617617423238528,14
599617617430925568,31
599617617438612736,40
599617617446299904,45
599617617453986944,54
599617617461674112,62
599617617469361280,69
599617617477048320,88
599617617484735488,109
599617617492422528,124
599617617500109696,133
599617617507796864,150
599617617515483904,176
599617617523171072,200
599617617530858240,219
599617617538545280,231
599617617546232448,236
599617617553919616,234
599617617561606656,229
599617617569293824,217
599617617576980864,186
599617617584668032,138
599617617592355200,81
599617617600042240,28
599617617607729336,-19
599617617615416448,-50
599617617623103616,-71
599617617630790656,-85
599617617638477824,-97
599617617646164992,-100
599617617653852032,-95
599617617661539200,-93
599617617669226240,-90
599617617676913408,-85
599617617684600576,-78
599617617692287616,-74
599617617699974784,-69
599617617707661952,-62
599617617715348992,-57
599617617723036160,-52
599617617730723328,-45
599617617738410368,-40
599617617746097536,-35
599617617753784704,-28
599617617761471744,-23
599617617769158912,-23
599617617776845952,-21
599617617784533120,-19
599617617792220288,-16
599617617799907328,-16
599617617807594496,-16
599617617815281664,-16
599617617822968704,-14
599617617830655872,-16
599617617838343040,-21
599617617846030080,-21
599617617853717248,-19
599617617861404288,-16
599617617869091456,-14
599617617876778624,-14
599617617884465664,-11
599617617892152832,-14
599617617899840000,-14
599617617907527040,-9
599617617915214208,-7
599617617922901376,-7
599617617930588416,-4
599617617938275584,-4
599617617945962752,-7
599617617953649792,-7
599617617961336960,-9
599617617969024000,-11
599617617976711168,-21
599617617984398336,-31
599617617992085376,-14
599617617999772544,19
599617618007459712,35
599617618015146752,42
599617618022833920,52
599617618030521088,40
599617618038208128,11
599617618045895296,4
599617618053582336,14
599617618061269504,11
599617618068956672,7
599617618076643712,9
599617618084330880,11
599617618092018048,11
599617618099705088,14
599617618107392256,-7
599617618115079424,-114
599617618122766464,-269
599617618130453632,-169
599617618138140672,434
599617618145827840,1246
599617618153515008,1378
599617618161202048,429
599617618168889233,-439
599617618176576384,-351
599617618184263552,-81
599617618191950592,-90
599617618199637760,-50
599617618207324928,0
599617618215011968,-28
599617618222699136,-23
599617618230386176,7
599617618238073344,7
599617618245760512,7
599617618253447552,23
599617618261134720,31
599617618268821888,33
599617618276508928,47
599617618284196096,57
599617618291883264,64
599617618299570304,74
599617618307257472,88
599617618314944640,105
599617618322631680,119
599617618330318848,136
599617618338005888,155
599617618345693056,176
599617618353380224,195
599617618361067264,210
599617618368754432,217
599617618376441600,219
599617618384128640,212
599617618391815808,195
599617618399502976,169
599617618407190016,131
599617618414877184,76
599617618422564224,23
599617618430251392,-21
599617618437938560,-52
599617618445625600,-71
599617618453312768,-83
599617618460999936,-88
599617618468686976,-88
599617618476374144,-90
599617618484061312,-90
599617618491748352,-85
599617618499435520,-81
599617618507122688,-81
599617618514809728,-74
599617618522496896,-69
599617618530183936,-62
599617618537871104,-57
599617618545558272,-52
599617618553245312,-45
599617618560932480,-38
599617618568619648,-35
599617618576306688,-33
599617618583993856,-28
599617618591681024,-23
599617618599368064,-19
599617618607055232,-16
599617618614742272,-16
599617618622429440,-14
599617618630116608,-11
599617618637803648,-11
599617618645490816,-14
599617618653177984,-14
599617618660865024,-14
599617618668552192,-11
599617618676239360,-11
599617618683926400,-14
599617618691613568,-14
599617618699300736,-11
599617618706987776,-9
599617618714674944,-11
599617618722361984,-11
599617618730049134,-7
599617618737736320,-4
599617618745423488,-7
599617618753110528,-7
599617618760797696,-2
599617618768484864,-2
599617618776171904,-2
599617618783859072,-2
599617618791546112,0
599617618799233280,0
599617618806920448,2
599617618814607488,2
599617618822294656,2
599617618829981824,2
599617618837668864,0
599617618845356032,-9
599617618853043200,-21
599617618860730240,-19
599617618868417408,11
599617618876104576,40
599617618883791616,45
599617618891478784,50
599617618899165824,47
599617618906852992,21
599617618914540160,2
599617618922227200,9
599617618929914368,14
599617618937601536,7
599617618945288576,9
599617618952975744,11
599617618960662912,9
599617618968349952,9
599617618976037120,0
599617618983724160,-76
599617618991411328,-236
599617618999098496,-236
599617619006785536,236
599617619014472704,1055
599617619022159872,1466
599617619029846912,797
599617619037534080,-212
599617619045221248,-389
599617619052908288,-121
599617619060595456,-74
599617619068282624,-71
599617619075969664,-23
599617619083656832,-35
599617619091343872,-45
599617619099031040,-16
599617619106718208,-9
599617619114405248,-7
599617619122092416,7
599617619129779584,14
599617619137466624,14
599617619145153792,23
599617619152840960,42
599617619160528000,52
599617619168215168,54
599617619175902208,64
599617619183589376,83
599617619191276544,100
599617619198963584,114
599617619206650752,133
599617619214337920,152
599617619222024960,171
599617619229712128,191
599617619237399296,203
599617619245086336,210
599617619252773504,210
599617619260460544,195
599617619268147712,171
599617619275834880,140
599617619283521920,97
599617619291209031,40
599617619298896256,-7
599617619306583424,-42
599617619314270464,-71
599617619321957632,-90
599617619329644800,-102
599617619337331840,-107
599617619345019008,-105
599617619352706048,-97
599617619360393216,-95
599617619368080384,-95
599617619375767424,-97
599617619383454592,-93
599617619391141760,-85
599617619398828800,-81
599617619406515968,-81
599617619414203136,-78
599617619421890176,-69
599617619429577344,-59
599617619437264512,-54
599617619444951552,-50
599617619452638720,-40
599617619460325760,-35
599617619468012928,-33
599617619475700096,-31
599617619483387136,-26
599617619491074304,-28
599617619498761472,-26
599617619506448512,-23
599617619514135680,-26
599617619521822848,-28
599617619529509888,-26
599617619537197056,-23
599617619544884096,-23
599617619552571264,-26
599617619560258432,-21
599617619567945472,-19
599617619575632640,-19
599617619583319808,-19
599617619591006848,-16
599617619598694016,-19
599617619606381184,-19
599617619614068224,-11
599617619621755392,-9
599617619629442560,-14
599617619637129600,-16
599617619644816768,-16
599617619652503808,-16
599617619660190976,-19
599617619667878144,-26
599617619675565184,-26
599617619683252352,-4
599617619690939520,16
599617619698626560,26
599617619706313728,40
599617619714000896,35
599617619721687936,2
599617619729375104,-9
599617619737062144,-2
599617619744749312,-2
599617619752436480,0
599617619760123520,4
599617619767810688,2
599617619775497856,0
599617619783184896,2
599617619790872064,-2
599617619798559232,-71
599617619806246272,-224
599617619813933440,-246
599617619821620480,193
599617619829307648,996
599617619836994816,1394
599617619844681856,673
599617619852368928,-386
599617619860056064,-513
599617619867743232,-176
599617619875430272,-121
599617619883117440,-74
599617619890804608,11
599617619898491648,-19
599617619906178816,-26
599617619913865856,16
599617619921553024,16
599617619929240192,7
599617619936927232,28
599617619944614400,38
599617619952301568,38
599617619959988608,50
599617619967675776,62
599617619975362944,74
599617619983049984,85
599617619990737152,95
599617619998424320,112
599617620006111360,133
599617620013798528,152
599617620021485568,171
599617620029172736,198
599617620036859904,217
599617620044546944,231
599617620052234112,246
599617620059921280,253
599617620067608320,248
599617620075295488,231
599617620082982656,207
599617620090669696,167
599617620098356864,107
599617620106043904,47
599617620113731072,-4
599617620121418240,-45
599617620129105280,-74
599617620136792448,-93
599617620144479616,-100
599617620152166656,-105
599617620159853824,-107
599617620167540992,-102
599617620175228032,-95
599617620182915200,-93
599617620190602368,-93
599617620198289408,-90
599617620205976576,-78
599617620213663616,-69
599617620221350784,-66
599617620229037952,-64
599617620236724992,-59
599617620244412160,-50
599617620252099328,-45
599617620259786368,-42
599617620267473536,-38
599617620275160704,-31
599617620282847744,-28
599617620290534912,-26
599617620298221952,-23
599617620305909120,-23
599617620313596288,-28
599617620321283328,-31
599617620328970496,-28
599617620336657664,-28
599617620344344704,-28
599617620352031872,-28
599617620359719040,-31
599617620367406080,-28
599617620375093248,-23
599617620382780288,-21
599617620390467456,-21
599617620398154624,-23
599617620405841664,-23
599617620413528825,-19
599617620421216000,-16
599617620428903168,-19
599617620436590208,-19
599617620444277376,-21
599617620451964544,-28
599617620459651584,-38
599617620467338752,-40
599617620475025792,-11
599617620482712960,19
599617620490400128,23
599617620498087168,28
599617620505774336,38
599617620513461504,19
599617620521148544,-2
599617620528835712,0
599617620536522880,4
599617620544209920,2
599617620551897088,0
599617620559584256,2
599617620567271296,4
599617620574958464,7
599617620582645504,2
599617620590332672,-47
599617620598019840,-195
599617620605706880,-286
599617620613394048,33
599617620621081216,807
599617620628768256,1430
599617620636455424,1022
599617620644142592,-93
599617620651829632,-508
599617620659516800,-203
599617620667203840,-74
599617620674891008,-76
599617620682578176,-4
599617620690265216,0
599617620697952384,-23
599617620705639552,0
599617620713326592,14
599617620721013760,11
599617620728700928,21
599617620736387968,31
599617620744075136,38
599617620751762304,47
599617620759449344,54
599617620767136512,59
599617620774823552,71
599617620782510720,88
599617620790197888,100
599617620797884928,114
599617620805572096,131
599617620813259264,150
599617620820946304,169
599617620828633472,193
599617620836320640,210
599617620844007680,219
599617620851694848,226
599617620859381888,224
599617620867069056,217
599617620874756224,193
599617620882443264,155
599617620890130432,105
599617620897817600,52
599617620905504640,2
599617620913191808,-35
599617620920878976,-57
599617620928566016,-69
599617620936253184,-83
599617620943940224,-93
599617620951627392,-90
599617620959314560,-88
599617620967001600,-88
599617620974688722,-83
599617620982375936,-81
599617620990063104,-81
599617620997750144,-74
599617621005437312,-66
599617621013124480,-62
599617621020811520,-59
599617621028498688,-52
599617621036185728,-50
599617621043872896,-42
599617621051560064,-35
599617621059247104,-33
599617621066934272,-28
599617621074621440,-23
599617621082308480,-19
599617621089995648,-19
599617621097682816,-21
599617621105369856,-21
599617621113057024,-21
599617621120744192,-21
599617621128431232,-21
599617621136118400,-21
599617621143805440,-19
599617621151492608,-19
599617621159179776,-19
599617621166866816,-19
599617621174553984,-16
599617621182241152,-11
599617621189928192,-9
599617621197615360,-11
599617621205302528,-11
599617621212989568,-9
599617621220676736,-9
599617621228363776,-7
599617621236050944,-4
599617621243738112,-7
599617621251425152,-4
599617621259112320,-2
599617621266799488,-7
599617621274486528,-14
599617621282173696,-19
599617621289860864,-28
599617621297547904,-19
599617621305235072,16
599617621312922240,35
599617621320609280,38
599617621328296448,47
599617621335983488,35
599617621343670656,2
599617621351357824,-2
599617621359044864,9
599617621366732032,7
599617621374419200,7
599617621382106240,9
599617621389793408,7
599617621397480576,4
599617621405167616,9
599617621412854784,-21
599617621420541824,-150
599617621428228992,-286
599617621435916160,-95
599617621443603200,587
599617621451290368,1339
599617621458977536,1253
599617621466664576,229
599617621474351744,-460
599617621482038912,-291
599617621489725952,-85
599617621497413120,-88
599617621505100160,-40
599617621512787328,-16
599617621520474496,-35
599617621528161536,-21
599617621535848619,-4
599617621543535744,-9
599617621551222912,-2
599617621558909952,11
599617621566597120,19
599617621574284288,26
599617621581971328,35
599617621589658496,45
599617621597345536,52
599617621605032704,66
599617621612719872,76
599617621620406912,88
599617621628094080,107
599617621635781248,124
599617621643468288,143
599617621651155456,169
599617621658842624,191
599617621666529664,200
599617621674216832,210
599617621681904000,212
599617621689591040,203
599617621697278208,181
599617621704965248,157
599617621712652416,117
599617621720339584,54
599617621728026624,-2
599617621735713792,-40
599617621743400960,-66
599617621751088000,-90
599617621758775168,-107
599617621766462336,-109
599617621774149376,-105
599617621781836544,-102
599617621789523584,-100
599617621797210752,-97
599617621804897920,-93
599617621812584960,-90
599617621820272128,-90
599617621827959296,-83
599617621835646336,-76
599617621843333504,-74
599617621851020672,-66
599617621858707712,-57
599617621866394880,-52
599617621874082048,-45
599617621881769088,-40
599617621889456256,-40
599617621897143296,-38
599617621904830464,-28
599617621912517632,-28
599617621920204672,-31
599617621927891840,-26
599617621935579008,-19
599617621943266048,-21
599617621950953216,-23
599617621958640384,-26
599617621966327424,-23
599617621974014592,-19
599617621981701632,-16
599617621989388800,-23
599617621997075968,-21
599617622004763008,-14
599617622012450176,-9
599617622020137344,-14
599617622027824384,-19
599617622035511552,-21
599617622043198720,-14
599617622050885760,-9
599617622058572928,-11
599617622066259968,-11
599617622073947136,-9
599617622081634304,-14
599617622089321344,-23
599617622097008516,-31
599617622104695680,-31
599617622112382848,-11
599617622120069888,11
599617622127757056,26
599617622135444224,40
599617622143131264,40
599617622150818432,14
599617622158505472,-7
599617622166192640,0
599617622173879808,4
599617622181566848,0
599617622189254016,2
599617622196941184,4
599617622204628224,7
599617622212315392,9
599617622220002560,7
599617622227689600,-47
599617622235376768,-195
599617622243063936,-269
599617622250750976,81
599617622258438144,862
599617622266125184,1406
599617622273812352,881
599617622281499520,-238
599617622289186560,-556
599617622296873728,-210
599617622304560896,-107
599617622312247936,-90
599617622319935104,11
599617622327622272,2
599617622335309312,-28
599617622342996480,4
599617622350683520,16
599617622358370688,9
599617622366057856,19
599617622373744896,33
599617622381432064,38
599617622389119232,47
599617622396806272,64
599617622404493440,71
599617622412180608,78
599617622419867648,93
599617622427554816,107
599617622435241984,124
599617622442929024,143
599617622450616192,162
599617622458303232,181
599617622465990400,203
599617622473677568,224
599617622481364608,236
599617622489051776,236
599617622496738944,231
599617622504425984,214
599617622512113152,195
599617622519800320,171
599617622527487360,119
599617622535174528,47
599617622542861568,-2
599617622550548736,-35
599617622558235904,-69
599617622565922944,-93
599617622573610112,-102
599617622581297280,-107
599617622588984320,-112
599617622596671488,-105
599617622604358656,-95
599617622612045696,-93
599617622619732864,-90
599617622627420032,-88
599617622635107072,-83
599617622642794240,-71
599617622650481280,-66
599617622658168417,-66
599617622665855616,-59
599617622673542784,-50
599617622681229824,-45
599617622688916992,-42
599617622696604160,-40
599617622704291200,-35
599617622711978368,-33
599617622719665408,-31
599617622727352576,-31
599617622735039744,-26
599617622742726784,-23
599617622750413952,-21
599617622758101120,-21
599617622765788160,-23
599617622773475328,-26
599617622781162496,-28
599617622788849536,-26
599617622796536704,-23
599617622804223872,-26
599617622811910912,-23
599617622819598080,-19
599617622827285120,-21
599617622834972288,-21
599617622842659456,-19
599617622850346496,-19
599617622858033664,-14
599617622865720832,-9
599617622873407872,-9
599617622881095040,-14
599617622888782208,-11
599617622896469248,-2
599617622904156416,-2
599617622911843456,-9
599617622919530624,-16
599617622927217792,-26
599617622934904832,-28
599617622942592000,-4
599617622950279168,26
599617622957966208,35
599617622965653376,42
599617622973340544,45
599617622981027584,21
599617622988714752,0
599617622996401920,7
599617623004088960,14
599617623011776128,9
599617623019463168,7
599617623027150336,11
599617623034837504,9
599617623042524544,9
599617623050211712,9
599617623057898880,-40
599617623065585920,-193
599617623073273088,-274
599617623080960256,66
599617623088647296,852
599617623096334464,1459
599617623104021504,1015
599617623111708672,-117
599617623119395840,-515
599617623127082880,-195
599617623134770048,-76
599617623142457216,-83
599617623150144256,-7
599617623157831424,-4
599617623165518592,-33
599617623173205632,-7
599617623180892800,9
599617623188579840,4
599617623196267008,16
599617623203954176,31
599617623211641216,31
599617623219328314,35
599617623227015424,50
599617623234702592,59
599617623242389632,66
599617623250076800,78
599617623257763968,95
599617623265451008,109
599617623273138176,124
599617623280825216,140
599617623288512384,160
599617623296199552,179
599617623303886592,195
599617623311573760,210
599617623319260928,217
599617623326947968,212
599617623334635136,203
599617623342322304,188
599617623350009344,157
599617623357696512,107
599617623365383680,50
599617623373070720,0
599617623380757888,-35
599617623388444928,-59
599617623396132096,-81
599617623403819264,-95
599617623411506304,-97
599617623419193472,-95
599617623426880640,-90
599617623434567680,-85
599617623442254848,-83
599617623449942016,-81
599617623457629056,-76
599617623465316224,-71
599617623473003264,-69
599617623480690432,-64
599617623488377600,-57
599617623496064640,-50
599617623503751808,-47
599617623511438976,-40
599617623519126016,-35
599617623526813184,-35
599617623534500352,-31
599617623542187392,-23
599617623549874560,-21
599617623557561728,-21
599617623565248768,-21
599617623572935936,-21
599617623580622976,-21
599617623588310144,-16
599617623595997312,-14
599617623603684352,-19
599617623611371520,-21
599617623619058688,-21
599617623626745728,-21
599617623634432896,-21
599617623642120064,-19
599617623649807104,-16
599617623657494272,-16
599617623665181312,-16
599617623672868480,-16
599617623680555648,-14
599617623688242688,-7
599617623695929856,-7
599617623703617024,-9
599617623711304064,-9
599617623718991232,-7
599617623726678400,-7
599617623734365440,-4
599617623742052608,-4
599617623749739648,-2
599617623757426816,-2
599617623765113984,-2
599617623772801024,-4
599617623780488211,-4
599617623788175360,0
599617623795862528,0
599617623803549568,-4
599617623811236736,-16
599617623818923904,-26
599617623826610944,-21
599617623834298112,7
599617623841985152,31
599617623849672320,35
599617623857359488,40
599617623865046528,38
599617623872733696,9
599617623880420864,-7
599617623888107904,2
599617623895795072,4
599617623903482240,0
599617623911169280,-2
599617623918856448,-2
599617623926543616,2
599617623934230656,4
599617623941917824,-14
599617623949604864,-114
599617623957292032,-274
599617623964979200,-207
599617623972666240,360
599617623980353408,1191
599617623988040576,1442
599617623995727616,611
599617624003414784,-317
599617624011101952,-358
599617624018788992,-105
599617624026476160,-93
599617624034163200,-74
599617624041850368,-26
599617624049537536,-47
599617624057224576,-50
599617624064911744,-21
599617624072598912,-14
599617624080285952,-16
599617624087973120,-2
599617624095660288,7
599617624103347328,9
599617624111034496,19
599617624118721664,33
599617624126408704,40
599617624134095872,50
599617624141782912,62
599617624149470080,71
599617624157157248,85
599617624164844288,105
599617624172531456,121
599617624180218624,138
599617624187905664,160
599617624195592832,179
599617624203280000,193
599617624210967040,195
599617624218654208,195
599617624226341248,188
599617624234028416,169
599617624241715584,136
599617624249402624,88
599617624257089792,33
599617624264776960,-11
599617624272464000,-42
599617624280151168,-66
599617624287838336,-90
599617624295525376,-105
599617624303212544,-105
599617624310899584,-102
599617624318586752,-102
599617624326273920,-95
599617624333960960,-93
599617624341648108,-93
599617624349335296,-88
599617624357022464,-81
599617624364709504,-78
599617624372396672,-76
599617624380083840,-69
599617624387770880,-64
599617624395458048,-57
599617624403145088,-47
599617624410832256,-42
599617624418519424,-40
599617624426206464,-40
599617624433893632,-38
599617624441580800,-33
599617624449267840,-26
599617624456955008,-28
599617624464642176,-33
599617624472329216,-33
599617624480016384,-31
599617624487703552,-31
599617624495390592,-31
599617624503077760,-31
599617624510764800,-33
599617624518451968,-33
599617624526139136,-26
599617624533826176,-26
599617624541513344,-28
599617624549200512,-28
599617624556887552,-26
599617624564574720,-26
599617624572261888,-28
599617624579948928,-31
599617624587636096,-26
599617624595323136,-14
599617624603010304,-11
599617624610697472,-16
599617624618384512,-16
599617624626071680,-14
599617624633758848,-14
599617624641445888,-14
599617624649133056,-16
599617624656820224,-16
599617624664507264,-26
599617624672194432,-23
599617624679881600,4
599617624687568640,26
599617624695255808,31
599617624702942848,38
599617624710630016,31
599617624718317184,0
599617624726004224,-7
599617624733691392,4
599617624741378560,7
599617624749065600,-2
599617624756752768,-2
599617624764439936,0
599617624772126976,4
599617624779814144,4
599617624787501184,-9
599617624795188352,-105
599617624802875520,-257
599617624810562560,-176
599617624818249728,396
599617624825936896,1184
599617624833623936,1325
599617624841311104,386
599617624848998272,-503
599617624856685312,-406
599617624864372480,-112
599617624872059520,-117
599617624879746688,-57
599617624887433856,11
599617624895120896,-26
599617624902808005,-23
599617624910495232,9
599617624918182400,7
599617624925869440,2
599617624933556608,23
599617624941243776,35
599617624948930816,35
599617624956617984,42
599617624964305024,57
599617624971992192,64
599617624979679360,76
599617624987366400,95
599617624995053568,109
599617625002740736,124
599617625010427776,138
599617625018114944,160
599617625025802112,183
599617625033489152,207
599617625041176320,226
599617625048863488,234
599617625056550528,236
599617625064237696,234
599617625071924736,224
599617625079611904,203
599617625087299072,162
599617625094986112,100
599617625102673280,40
599617625110360448,-7
599617625118047488,-45
599617625125734656,-74
599617625133421824,-90
599617625141108864,-102
599617625148796032,-105
599617625156483072,-102
599617625164170240,-105
599617625171857408,-100
599617625179544448,-93
599617625187231616,-83
599617625194918784,-81
599617625202605824,-78
599617625210292992,-76
599617625217980160,-69
599617625225667200,-62
599617625233354368,-54
599617625241041536,-50
599617625248728576,-45
599617625256415744,-40
599617625264102784,-33
599617625271789952,-31
599617625279477120,-31
599617625287164160,-31
599617625294851328,-21
599617625302538496,-21
599617625310225536,-26
599617625317912704,-23
599617625325599872,-21
599617625333286912,-23
599617625340974080,-23
599617625348661120,-23
599617625356348288,-23
599617625364035456,-16
599617625371722496,-16
599617625379409664,-21
599617625387096832,-21
599617625394783872,-16
599617625402471040,-19
599617625410158208,-23
599617625417845248,-21
599617625425532416,-16
599617625433219456,-19
599617625440906624,-23
599617625448593792,-26
599617625456280832,-33
599617625463967902,-35
599617625471655040,-19
599617625479342208,11
599617625487029248,28
599617625494716416,33
599617625502403584,38
599617625510090624,19
599617625517777792,-2
599617625525464832,-2
599617625533152000,2
599617625540839168,-2
599617625548526208,-4
599617625556213376,-2
599617625563900544,2
599617625571587584,7
599617625579274752,2
599617625586961920,-33
599617625594648960,-167
599617625602336128,-289
599617625610023296,-57
599617625617710336,661
599617625625397504,1375
599617625633084544,1175
599617625640771712,81
599617625648458880,-530
599617625656145920,-277
599617625663833088,-83
599617625671520256,-97
599617625679207296,-28
599617625686894464,0
599617625694581632,-28
599617625702268672,-14
599617625709955840,9
599617625717642880,7
599617625725330048,14
599617625733017216,28
599617625740704256,35
599617625748391424,40
599617625756078592,50
599617625763765632,57
599617625771452800,69
599617625779139968,83
599617625786827008,97
599617625794514176,109
599617625802201344,124
599617625809888384,143
599617625817575552,164
599617625825262592,183
599617625832949760,203
599617625840636928,217
599617625848323968,224
599617625856011136,224
599617625863698304,219
599617625871385344,203
599617625879072512,171
599617625886759680,124
599617625894446720,66
599617625902133888,11
599617625909820928,-31
599617625917508096,-62
599617625925195264,-81
599617625932882304,-93
599617625940569472,-95
599617625948256640,-95
599617625955943680,-97
599617625963630848,-95
599617625971318016,-93
599617625979005056,-85
599617625986692224,-78
599617625994379392,-76
599617626002066432,-74
599617626009753600,-69
599617626017440640,-62
599617626025127803,-59
599617626032814976,-54
599617626040502144,-47
599617626048189184,-45
599617626055876352,-38
599617626063563520,-28
599617626071250560,-26
599617626078937728,-26
599617626086624768,-23
599617626094311936,-21
599617626101999104,-23
599617626109686144,-23
599617626117373312,-23
599617626125060480,-23
599617626132747520,-23
599617626140434688,-23
599617626148121856,-21
599617626155808896,-21
599617626163496064,-19
599617626171183232,-21
599617626178870272,-19
599617626186557440,-16
599617626194244480,-19
599617626201931648,-19
599617626209618816,-14
599617626217305856,-9
599617626224993024,-11
599617626232680192,-14
599617626240367232,-14
599617626248054400,-11
599617626255741568,-9
599617626263428608,-9
599617626271115776,-11
599617626278802816,-11
599617626286489984,-9
599617626294177152,-16
599617626301864192,-26
599617626309551360,-31
599617626317238528,-16
599617626324925568,14
599617626332612736,33
599617626340299904,40
599617626347986944,45
599617626355674112,31
599617626363361280,7
599617626371048320,0
599617626378735488,7
599617626386422528,7
599617626394109696,4
599617626401796864,4
599617626409483904,7
599617626417171072,7
599617626424858240,4
599617626432545280,-35
599617626440232448,-174
599617626447919616,-284
599617626455606656,-16
599617626463293824,721
599617626470980864,1406
599617626478668032,1158
599617626486355200,105
599617626494042240,-444
599617626501729408,-226
599617626509416576,-76
599617626517103616,-85
599617626524790784,-38
599617626532477952,-26
599617626540164992,-50
599617626547852160,-28
599617626555539200,-9
599617626563226368,-11
599617626570913536,-4
599617626578600576,7
599617626586287700,11
599617626593974912,21
599617626601662080,33
599617626609349120,40
599617626617036288,47
599617626624723456,59
599617626632410496,76
599617626640097664,90
599617626647784704,102
599617626655471872,117
599617626663159040,138
599617626670846080,160
599617626678533248,174
599617626686220416,191
599617626693907456,205
599617626701594624,210
599617626709281792,200
599617626716968832,179
599617626724656000,155
599617626732343168,119
599617626740030208,64
599617626747717376,7
599617626755404416,-31
599617626763091584,-59
599617626770778752,-81
599617626778465792,-93
599617626786152960,-100
599617626793840128,-107
599617626801527168,-107
599617626809214336,-105
599617626816901504,-102
599617626824588544,-95
599617626832275712,-85
599617626839962752,-83
599617626847649920,-81
599617626855337088,-74
599617626863024128,-69
599617626870711296,-66
599617626878398464,-62
599617626886085504,-57
599617626893772672,-52
599617626901459840,-45
599617626909146880,-38
599617626916834048,-42
599617626924521216,-40
599617626932208256,-31
599617626939895424,-33
599617626947582464,-40
599617626955269632,-33
599617626962956800,-26
599617626970643840,-28
599617626978331008,-33
599617626986018176,-31
599617626993705216,-35
599617627001392384,-35
599617627009079552,-31
599617627016766592,-31
599617627024453760,-31
599617627032140800,-28
599617627039827968,-31
599617627047515136,-33
599617627055202176,-28
599617627062889344,-28
599617627070576512,-21
599617627078263552,-19
599617627085950720,-21
599617627093637888,-19
599617627101324928,-14
599617627109012096,-11
599617627116699136,-14
599617627124386304,-19
599617627132073472,-19
599617627139760512,-23
599617627147447597,-33
599617627155134720,-26
599617627162821888,4
599617627170508928,26
599617627178196096,33
599617627185883264,35
599617627193570304,16
599617627201257472,-7
599617627208944512,-7
599617627216631680,-2
599617627224318848,-4
599617627232005888,-4
599617627239693056,-2
599617627247380224,-2
599617627255067264,-4
599617627262754432,-7
599617627270441600,-47
599617627278128640,-183
599617627285815808,-272
599617627293502976,28
599617627301190016,778
599617627308877184,1385
599617627316564224,981
599617627324251392,-140
599617627331938560,-570
599617627339625600,-250
599617627347312768,-109
599617627354999936,-102
599617627362686976,-7
599617627370374144,-4
599617627378061312,-42
599617627385748352,-7
599617627393435520,11
599617627401122560,0
599617627408809728,4
599617627416496896,21
599617627424183936,31
599617627431871104,38
599617627439558272,45
599617627447245312,54
599617627454932480,66
599617627462619648,78
599617627470306688,95
599617627477993856,114
599617627485681024,128
599617627493368064,145
599617627501055232,171
599617627508742272,191
599617627516429440,205
599617627524116608,222
599617627531803648,231
599617627539490816,229
599617627547177984,226
599617627554865024,212
599617627562552192,176
599617627570239360,126
599617627577926400,66
599617627585613568,9
599617627593300608,-33
599617627600987776,-66
599617627608674944,-90
599617627616361984,-105
599617627624049152,-109
599617627631736320,-109
599617627639423360,-107
599617627647110528,-105
599617627654797696,-100
599617627662484736,-95
599617627670171904,-90
599617627677858944,-81
599617627685546112,-78
599617627693233280,-76
599617627700920320,-66
599617627708607494,-59
599617627716294656,-54
599617627723981824,-52
599617627731668864,-47
599617627739356032,-40
599617627747043200,-33
599617627754730240,-28
599617627762417408,-31
599617627770104448,-31
599617627777791616,-28
599617627785478784,-28
599617627793165824,-28
599617627800852992,-26
599617627808540160,-21
599617627816227200,-19
599617627823914368,-23
599617627831601536,-21
599617627839288576,-19
599617627846975744,-19
599617627854662912,-16
599617627862349952,-14
599617627870037120,-19
599617627877724160,-19
599617627885411328,-14
599617627893098496,-11
599617627900785536,-9
599617627908472704,-9
599617627916159872,-16
599617627923846912,-23
599617627931534080,-31
599617627939221248,-38
599617627946908288,-23
599617627954595456,7
599617627962282496,21
599617627969969664,28
599617627977656832,38
599617627985343872,23
599617627993031040,-4
599617628000718208,-4
599617628008405248,7
599617628016092416,7
599617628023779584,4
599617628031466624,7
599617628039153792,9
599617628046840960,9
599617628054528000,9
599617628062215168,-28
599617628069902208,-167
599617628077589376,-286
599617628085276544,-28
599617628092963584,711
599617628100650752,1402
599617628108337920,1136
599617628116024960,38
599617628123712128,-513
599617628131399296,-248
599617628139086336,-78
599617628146773504,-90
599617628154460544,-23
599617628162147712,-4
599617628169834880,-31
599617628177521920,-11
599617628185209088,4
599617628192896256,0
599617628200583296,9
599617628208270464,23
599617628215957632,28
599617628223644672,33
599617628231331840,42
599617628239018880,52
599617628246706048,64
599617628254393216,78
599617628262080256,90
599617628269767391,107
599617628277454592,126
599617628285141760,145
599617628292828800,162
599617628300515968,188
599617628308203136,212
599617628315890176,226
599617628323577344,234
599617628331264384,234
599617628338951552,224
599617628346638720,210
599617628354325760,179
599617628362012928,128
599617628369700096,69
599617628377387136,14
599617628385074304,-26
599617628392761472,-54
599617628400448512,-76
599617628408135680,-88
599617628415822848,-95
599617628423509888,-93
599617628431197056,-90
599617628438884096,-88
599617628446571264,-85
599617628454258432,-81
599617628461945472,-78
599617628469632640,-74
599617628477319808,-71
599617628485006848,-66
599617628492694016,-62
599617628500381184,-54
599617628508068224,-47
599617628515755392,-40
599617628523442432,-33
599617628531129600,-31
599617628538816768,-28
599617628546503808,-23
599617628554190976,-19
599617628561878144,-16
599617628569565184,-19
599617628577252352,-19
599617628584939520,-19
599617628592626560,-19
599617628600313728,-19
599617628608000896,-21
599617628615687936,-21
599617628623375104,-19
599617628631062144,-16
599617628638749312,-14
599617628646436480,-14
599617628654123520,-16
599617628661810688,-14
599617628669497856,-11
599617628677184896,-11
599617628684872064,-11
599617628692559232,-7
599617628700246272,-7
599617628707933440,-9
599617628715620480,-7
599617628723307648,-4
599617628730994816,-7
599617628738681856,-4
599617628746369024,-2
599617628754056192,-4
599617628761743232,-7
599617628769430400,-7
599617628777117568,-9
599617628784804608,-19
599617628792491776,-26
599617628800178816,-14
599617628807865984,16
599617628815553152,33
599617628823240192,38
599617628830927288,47
599617628838614400,35
599617628846301568,9
599617628853988608,0
599617628861675776,2
599617628869362944,2
599617628877049984,0
599617628884737152,4
599617628892424192,9
599617628900111360,9
599617628907798528,7
599617628915485568,-21
599617628923172736,-140
599617628930859904,-289
599617628938546944,-136
599617628946234112,523
599617628953921280,1316
599617628961608320,1344
599617628969295488,384
599617628976982656,-382
599617628984669696,-289
599617628992356864,-83
599617629000043904,-90
599617629007731072,-52
599617629015418240,-21
599617629023105280,-45
599617629030792448,-40
599617629038479616,-16
599617629046166656,-16
599617629053853824,-14
599617629061540992,4
599617629069228032,11
599617629076915200,16
599617629084602240,23
599617629092289408,31
599617629099976576,40
599617629107663616,54
599617629115350784,66
599617629123037952,76
599617629130724992,90
599617629138412160,112
599617629146099328,128
599617629153786368,148
599617629161473536,169
599617629169160704,183
599617629176847744,191
599617629184534912,195
599617629192221952,191
599617629199909120,183
599617629207596288,167
599617629215283328,124
599617629222970496,71
599617629230657664,26
599617629238344704,-16
599617629246031872,-57
599617629253719040,-78
599617629261406080,-88
599617629269093248,-97
599617629276780288,-102
599617629284467456,-100
599617629292154624,-93
599617629299841664,-93
599617629307528832,-90
599617629315216000,-83
599617629322903040,-81
599617629330590208,-74
599617629338277376,-69
599617629345964416,-66
599617629353651584,-62
599617629361338752,-57
599617629369025792,-54
599617629376712960,-50
599617629384400000,-40
599617629392087189,-40
599617629399774464,-42
599617629407461760,-40
599617629415148928,-33
599617629422836224,-31
599617629430523520,-31
599617629438210816,-31
599617629445897984,-28
599617629453585280,-28
599617629461272576,-33
599617629468959872,-38
599617629476647040,-35
599617629484334336,-26
599617629492021632,-23
599617629499708800,-28
599617629507396096,-31
599617629515083392,-31
599617629522770688,-28
599617629530457856,-28
599617629538145152,-28
599617629545832448,-28
599617629553519744,-26
599617629561206912,-21
599617629568894208,-16
599617629576581504,-19
599617629584268672,-23
599617629591955968,-26
599617629599643264,-31
599617629607330560,-42
599617629615017728,-50
599617629622705024,-28
599617629630392320,0
599617629638079616,7
599617629645766784,16
599617629653454080,28
599617629661141376,7
599617629668828544,-16
599617629676515840,-11
599617629684203136,-9
599617629691890432,-14
599617629699577600,-9
599617629707264896,-2
599617629714952192,-4
599617629722639488,-2
599617629730326656,-4
599617629738013952,-42
599617629745701248,-174
599617629753388544,-279
599617629761075712,-11
599617629768763008,721
599617629776450304,1366
599617629784137472,1034
599617629791824768,-81
599617629799512064,-568
599617629807199360,-265
599617629814886528,-112
599617629822573824,-114
599617629830261120,-26
599617629837948416,-14
599617629845635584,-45
599617629853322880,-16
599617629861010176,2
599617629868697344,-2
599617629876384640,4
599617629884071936,9
599617629891759232,11
599617629899446400,28
599617629907133696,47
599617629914820992,54
599617629922508288,59
599617629930195456,76
599617629937882752,95
599617629945570048,107
599617629953257260,119
599617629960944384,138
599617629968631552,162
599617629976318720,183
599617629984006016,203
599617629991693184,219
599617629999380352,231
599617630007067520,231
599617630014754688,224
599617630022441856,210
599617630030129152,176
599617630037816320,124
599617630045503488,66
599617630053190656,11
599617630060877824,-38
599617630068565120,-71
599617630076252288,-93
599617630083939456,-109
599617630091626624,-117
599617630099313792,-114
599617630107000960,-117
599617630114688256,-119
599617630122375424,-109
599617630130062592,-102
599617630137749760,-100
599617630145436928,-95
599617630153124224,-88
599617630160811392,-83
599617630168498560,-76
599617630176185728,-76
599617630183872896,-71
599617630191560192,-59
599617630199247360,-50
599617630206934528,-50
599617630214621696,-42
599617630222308864,-33
599617630229996032,-33
599617630237683328,-38
599617630245370496,-31
599617630253057664,-26
599617630260744832,-28
599617630268432000,-33
599617630276119296,-31
599617630283806464,-31
599617630291493632,-33
599617630299180800,-28
599617630306867968,-21
599617630314555136,-21
599617630322242432,-23
599617630329929600,-21
599617630337616768,-23
599617630345303936,-31
599617630352991104,-40
599617630360678400,-47
599617630368365568,-42
599617630376052736,-16
599617630383739904,4
599617630391427072,14
599617630399114240,26
599617630406801536,26
599617630414488704,-2
599617630422175872,-14
599617630429863040,-7
599617630437550208,-7
599617630445237504,-9
599617630452924672,-4
599617630460611840,0
599617630468299008,-2
599617630475986176,-4
599617630483673472,-2
599617630491360640,-57
599617630499047808,-219
599617630506734976,-293
599617630514422244,78
599617630522109440,881
599617630529796608,1428
599617630537483776,888
599617630545171072,-229
599617630552858240,-532
599617630560545408,-195
599617630568232576,-102
599617630575919744,-95
599617630583606912,-2
599617630591294208,-7
599617630598981376,-35
599617630606668544,-4
599617630614355712,4
599617630622042880,-4
599617630629730176,7
599617630637417344,21
599617630645104512,23
599617630652791680,33
599617630660478848,50
599617630668166016,59
599617630675853312,69
599617630683540480,81
599617630691227648,97
599617630698914816,112
599617630706601984,126
599617630714289280,145
599617630721976448,171
599617630729663616,195
599617630737350784,212
599617630745037952,226
599617630752725248,238
599617630760412416,236
599617630768099584,226
599617630775786752,200
599617630783473920,160
599617630791161088,105
599617630798848384,45
599617630806535552,-7
599617630814222720,-45
599617630821909888,-74
599617630829597056,-93
599617630837284352,-105
599617630844971520,-105
599617630852658688,-105
599617630860345856,-107
599617630868033024,-102
599617630875720192,-93
599617630883407488,-88
599617630891094656,-85
599617630898781824,-83
599617630906468992,-78
599617630914156160,-71
599617630921843456,-64
599617630929530624,-57
599617630937217792,-52
599617630944904960,-45
599617630952592128,-38
599617630960279296,-33
599617630967966592,-31
599617630975653760,-26
599617630983340928,-21
599617630991028096,-21
599617630998715264,-23
599617631006402560,-26
599617631014089728,-23
599617631021776896,-21
599617631029464064,-23
599617631037151232,-23
599617631044838528,-23
599617631052525696,-21
599617631060212864,-19
599617631067900032,-14
599617631075587228,-14
599617631083274368,-14
599617631090961536,-14
599617631098648704,-11
599617631106336000,-9
599617631114023168,-7
599617631121710336,-4
599617631129397504,-4
599617631137084672,-7
599617631144771840,-7
599617631152459136,-4
599617631160146304,-7
599617631167833472,-11
599617631175520640,-19
599617631183207808,-28
599617631190895104,-31
599617631198582272,-4
599617631206269440,21
599617631213956608,31
599617631221643776,40
599617631229330944,42
599617631237018240,19
599617631244705408,-2
599617631252392576,2
599617631260079744,4
599617631267766912,2
599617631275454208,4
599617631283141376,4
599617631290828544,4
599617631298515712,7
599617631306202880,0
599617631313890176,-64
599617631321577344,-219
599617631329264512,-272
599617631336951680,128
599617631344638848,943
599617631352326016,1468
599617631360013312,926
599617631367700480,-128
599617631375387648,-420
599617631383074816,-155
599617631390761984,-83
599617631398449280,-81
599617631406136448,-26
599617631413823616,-33
599617631421510784,-45
599617631429197952,-21
599617631436885120,-14
599617631444572416,-16
599617631452259584,-2
599617631459946752,9
599617631467633920,11
599617631475321088,19
599617631483008384,35
599617631490695552,47
599617631498382720,47
599617631506069888,57
599617631513757056,71
599617631521444224,83
599617631529131520,97
599617631536818688,114
599617631544505856,136
599617631552193024,157
599617631559880192,174
599617631567567488,183
599617631575254656,191
599617631582941824,193
599617631590628992,186
599617631598316160,169
599617631606003456,138
599617631613690624,95
599617631621377792,40
599617631629064960,-7
599617631636752212,-45
599617631644439424,-71
599617631652126592,-90
599617631659813760,-102
599617631667501056,-105
599617631675188224,-102
599617631682875392,-102
599617631690562560,-100
599617631698249728,-95
599617631705936896,-90
599617631713624192,-85
599617631721311360,-81
599617631728998528,-76
599617631736685696,-71
599617631744372864,-71
599617631752060160,-64
599617631759747328,-57
599617631767434496,-52
599617631775121664,-45
599617631782808832,-40
599617631790496000,-40
599617631798183296,-40
599617631805870464,-35
599617631813557632,-31
599617631821244800,-31
599617631828931968,-28
599617631836619264,-28
599617631844306432,-26
599617631851993600,-26
599617631859680768,-28
599617631867367936,-28
599617631875055232,-26
599617631882742400,-26
599617631890429568,-26
599617631898116736,-26
599617631905803904,-26
599617631913491072,-26
599617631921178368,-26
599617631928865536,-19
599617631936552704,-14
599617631944239872,-16
599617631951927040,-19
599617631959614336,-19
599617631967301504,-19
599617631974988672,-16
599617631982675840,-14
599617631990363008,-14
599617631998050176,-14
599617632005737472,-11
599617632013424640,-14
599617632021111808,-14
599617632028798976,-11
599617632036486144,-19
599617632044173440,-26
599617632051860608,-33
599617632059547776,-31
599617632067234944,-2
599617632074922112,21
599617632082609280,23
599617632090296576,28
599617632097983744,26
599617632105670912,0
599617632113358080,-16
599617632121045248,-9
599617632128732544,-7
599617632136419712,-11
599617632144106880,-11
599617632151794048,-11
599617632159481216,-14
599617632167168512,-11
599617632174855680,-28
599617632182542848,-131
599617632190230016,-277
599617632197917196,-171
599617632205604352,422
599617632213291520,1215
599617632220978560,1347
599617632228665728,425
599617632236352896,-444
599617632244039936,-384
599617632251727104,-119
599617632259414144,-109
599617632267101312,-71
599617632274788480,-26
599617632282475520,-50
599617632290162688,-38
599617632297849856,-16
599617632305536896,-23
599617632313224064,-21
599617632320911232,-2
599617632328598272,4
599617632336285440,7
599617632343972608,19
599617632351659648,23
599617632359346816,31
599617632367033856,40
599617632374721024,54
599617632382408192,71
599617632390095232,85
599617632397782400,102
599617632405469568,126
599617632413156608,145
599617632420843776,164
599617632428530944,188
599617632436217984,198
599617632443905152,195
599617632451592192,200
599617632459279360,198
599617632466966528,171
599617632474653568,136
599617632482340736,88
599617632490027904,33
599617632497714944,-19
599617632505402112,-57
599617632513089280,-83
599617632520776320,-105
599617632528463488,-119
599617632536150656,-119
599617632543837696,-114
599617632551524864,-114
599617632559211904,-112
599617632566899072,-102
599617632574586240,-95
599617632582273280,-95
599617632589960448,-90
599617632597647616,-83
599617632605334656,-81
599617632613021824,-78
599617632620708992,-71
599617632628396032,-59
599617632636083200,-47
599617632643770240,-45
599617632651457408,-45
599617632659144576,-40
599617632666831616,-35
599617632674518784,-35
599617632682205952,-35
599617632689892992,-35
599617632697580160,-33
599617632705267328,-28
599617632712954368,-28
599617632720641536,-28
599617632728328576,-31
599617632736015744,-33
599617632743702912,-31
599617632751389952,-31
599617632759077093,-31
599617632766764544,-28
599617632774451968,-31
599617632782139392,-31
599617632789826688,-26
599617632797514112,-23
599617632805201536,-23
599617632812888960,-26
599617632820576384,-31
599617632828263808,-31
599617632835951104,-38
599617632843638528,-45
599617632851325952,-35
599617632859013376,-2
599617632866700800,14
599617632874388096,16
599617632882075520,21
599617632889762944,4
599617632897450368,-21
599617632905137792,-21
599617632912825216,-9
599617632920512512,-11
599617632928199936,-16
599617632935887360,-11
599617632943574784,-7
599617632951262208,-7
599617632958949504,-11
599617632966636928,-33
599617632974324352,-138
599617632982011776,-291
599617632989699200,-169
599617632997386624,465
599617633005073920,1242
599617633012761344,1237
599617633020448768,203
599617633028136192,-575
599617633035823616,-379
599617633043510912,-124
599617633051198336,-136
599617633058885760,-47
599617633066573184,9
599617633074260608,-31
599617633081948032,-23
599617633089635328,2
599617633097322752,2
599617633105010176,9
599617633112697600,23
599617633120385024,28
599617633128072320,33
599617633135759744,40
599617633143447168,54
599617633151134592,69
599617633158822016,78
599617633166509312,90
599617633174196736,107
599617633181884160,128
599617633189571584,145
599617633197259008,164
599617633204946432,188
599617633212633728,210
599617633220321152,224
599617633228008576,234
599617633235696000,236
599617633243383424,231
599617633251070720,214
599617633258758144,186
599617633266445568,138
599617633274132992,81
599617633281820416,21
599617633289507840,-31
599617633297195136,-69
599617633304882560,-93
599617633312569984,-107
599617633320257336,-112
599617633327944064,-114
599617633335630848,-112
599617633343317760,-109
599617633351004544,-105
599617633358691456,-95
599617633366378240,-95
599617633374065152,-88
599617633381751936,-81
599617633389438848,-81
599617633397125632,-74
599617633404812544,-64
599617633412499328,-62
599617633420186240,-62
599617633427873024,-54
599617633435559808,-47
599617633443246720,-42
599617633450933504,-40
599617633458620416,-40
599617633466307200,-40
599617633473994112,-35
599617633481680896,-28
599617633489367808,-28
599617633497054592,-31
599617633504741504,-33
599617633512428288,-31
599617633520115200,-31
599617633527801984,-28
599617633535488768,-28
599617633543175680,-31
599617633550862464,-26
599617633558549376,-21
599617633566236160,-23
599617633573923072,-23
599617633581609856,-23
599617633589296768,-23
599617633596983552,-21
599617633604670464,-16
599617633612357248,-16
599617633620044160,-16
599617633627730944,-16
599617633635417728,-19
599617633643104640,-23
599617633650791424,-33
599617633658478336,-33
599617633666165120,-2
599617633673852032,23
599617633681538816,28
599617633689225728,38
599617633696912512,33
599617633704599424,2
599617633712286208,-9
599617633719973120,2
599617633727659904,2
599617633735346688,-2
599617633743033600,0
599617633750720384,4
599617633758407296,7
599617633766094080,9
599617633773780992,-2
599617633781467776,-90
599617633789154688,-260
599617633796841472,-236
599617633804528384,284
599617633812215168,1117
599617633819902080,1440
599617633827588864,642
599617633835275776,-353
599617633842962560,-415
599617633850649344,-117
599617633858336256,-93
599617633866023040,-69
599617633873709952,-9
599617633881396887,-35
599617633889083904,-40
599617633896770944,-7
599617633904457856,0
599617633912144896,-4
599617633919831808,4
599617633927518848,14
599617633935205760,19
599617633942892800,28
599617633950579712,40
599617633958266752,47
599617633965953792,57
599617633973640704,66
599617633981327744,81
599617633989014656,95
599617633996701696,112
599617634004388608,128
599617634012075648,150
599617634019762560,169
599617634027449600,186
599617634035136512,198
599617634042823552,203
599617634050510592,200
599617634058197504,188
599617634065884544,167
599617634073571456,131
599617634081258496,76
599617634088945408,21
599617634096632448,-19
599617634104319360,-54
599617634112006400,-83
599617634119693440,-95
599617634127380352,-102
599617634135067392,-109
599617634142754304,-107
599617634150441344,-102
599617634158128256,-100
599617634165815296,-93
599617634173502208,-88
599617634181189248,-88
599617634188876160,-85
599617634196563200,-78
599617634204250240,-71
599617634211937152,-66
599617634219624192,-59
599617634227311104,-54
599617634234998144,-50
599617634242685056,-42
599617634250372096,-38
599617634258059008,-35
599617634265746048,-28
599617634273433088,-23
599617634281120000,-21
599617634288807040,-23
599617634296493952,-23
599617634304180992,-21
599617634311867904,-21
599617634319554944,-23
599617634327241856,-21
599617634334928896,-21
599617634342615936,-23
599617634350302848,-23
599617634357989888,-21
599617634365676800,-19
599617634373363840,-16
599617634381050752,-14
599617634388737792,-11
599617634396424704,-14
599617634404111744,-11
599617634411798656,-11
599617634419485696,-11
599617634427172736,-11
599617634434859648,-11
599617634442546614,-7
599617634450233728,-7
599617634457920896,-9
599617634465608064,-11
599617634473295360,-14
599617634480982528,-19
599617634488669696,-31
599617634496356864,-28
599617634504044032,-2
599617634511731200,23
599617634519418496,31
599617634527105664,40
599617634534792832,40
599617634542480000,14
599617634550167168,-7
599617634557854464,-2
599617634565541632,2
599617634573228800,-2
599617634580915968,0
599617634588603136,2
599617634596290304,0
599617634603977600,0
599617634611664768,-7
599617634619351936,-83
599617634627039104,-246
599617634634726272,-262
599617634642413568,191
599617634650100736,1017
599617634657787904,1464
599617634665475072,821
599617634673162240,-198
599617634680849536,-398
599617634688536704,-136
599617634696223872,-90
599617634703911040,-85
599617634711598208,-33
599617634719285376,-45
599617634726972672,-57
599617634734659840,-31
599617634742347008,-19
599617634750034176,-26
599617634757721344,-19
599617634765408640,0
599617634773095808,7
599617634780782976,9
599617634788470144,21
599617634796157312,33
599617634803844480,42
599617634811531776,54
599617634819218944,64
599617634826906112,83
599617634834593280,100
599617634842280448,114
599617634849967744,133
599617634857654912,152
599617634865342080,171
599617634873029248,183
599617634880716416,193
599617634888403584,195
599617634896090880,193
599617634903778048,174
599617634911465216,140
599617634919152384,93
599617634926839552,38
599617634934526848,-11
599617634942214016,-47
599617634949901184,-76
599617634957588352,-97
599617634965275520,-109
599617634972962816,-117
599617634980649984,-117
599617634988337152,-114
599617634996024320,-112
599617635003711598,-109
599617635011398784,-107
599617635019085952,-100
599617635026773120,-90
599617635034460416,-85
599617635042147584,-83
599617635049834752,-81
599617635057521920,-76
599617635065209088,-69
599617635072896256,-59
599617635080583552,-54
599617635088270720,-52
599617635095957888,-52
599617635103645056,-50
599617635111332224,-42
599617635119019520,-38
599617635126706688,-40
599617635134393856,-38
599617635142081024,-33
599617635149768192,-35
599617635157455360,-40
599617635165142656,-40
599617635172829824,-35
599617635180516992,-38
599617635188204160,-38
599617635195891328,-31
599617635203578624,-26
599617635211265792,-26
599617635218952960,-28
599617635226640128,-33
599617635234327296,-35
599617635242014592,-33
599617635249701760,-31
599617635257388928,-33
599617635265076096,-38
599617635272763264,-42
599617635280450432,-47
599617635288137728,-35
599617635295824896,-7
599617635303512064,9
599617635311199232,21
599617635318886400,28
599617635326573696,9
599617635334260864,-11
599617635341948032,-11
599617635349635200,-7
599617635357322368,-9
599617635365009536,-11
599617635372696832,-9
599617635380384000,0
599617635388071168,-2
599617635395758336,-11
599617635403445504,-45
599617635411132800,-169
599617635418819968,-289
599617635426507136,-50
599617635434194304,675
599617635441881472,1354
599617635449568640,1072
599617635457255936,-38
599617635464943104,-575
599617635472630272,-281
599617635480317440,-107
599617635488004608,-112
599617635495691904,-21
599617635503379072,-4
599617635511066240,-40
599617635518753408,-14
599617635526440576,7
599617635534127872,-2
599617635541815040,9
599617635549502208,26
599617635557189376,23
599617635564876582,28
599617635572563328,40
599617635580250112,52
599617635587936896,64
599617635595623680,81
599617635603310464,95
599617635610997248,107
599617635618684032,124
599617635626370688,148
599617635634057472,167
599617635641744256,183
599617635649431040,207
599617635657117824,224
599617635664804608,234
599617635672491392,238
599617635680178176,234
599617635687864960,214
599617635695551744,179
599617635703238528,128
599617635710925312,66
599617635718611968,7
599617635726298752,-38
599617635733985536,-71
599617635741672320,-95
599617635749359104,-109
599617635757045888,-117
599617635764732672,-114
599617635772419456,-112
599617635780106240,-114
599617635787793024,-109
599617635795479808,-102
599617635803166592,-102
599617635810853248,-102
599617635818540032,-90
599617635826226816,-78
599617635833913600,-71
599617635841600384,-69
599617635849287168,-64
599617635856973952,-59
599617635864660736,-47
599617635872347520,-40
599617635880034304,-38
599617635887721088,-35
599617635895407872,-31
599617635903094528,-28
599617635910781312,-33
599617635918468096,-33
599617635926154880,-26
599617635933841664,-23
599617635941528448,-23
599617635949215232,-23
599617635956902016,-23
599617635964588800,-23
599617635972275584,-21
599617635979962368,-19
599617635987649152,-19
599617635995335808,-21
599617636003022592,-23
599617636010709376,-28
599617636018396160,-38
599617636026082944,-47
599617636033769728,-40
599617636041456512,-11
599617636049143296,9
599617636056830080,16
599617636064516864,26
599617636072203648,21
599617636079890432,-2
599617636087577216,-16
599617636095263872,-14
599617636102950656,-11
599617636110637440,-11
599617636118324224,-11
599617636126011048,-14
599617636133698176,-7
599617636141385344,-2
599617636149072512,-19
599617636156759808,-114
599617636164446976,-274
599617636172134144,-214
599617636179821312,341
599617636187508480,1158
599617636195195648,1368
599617636202882944,460
599617636210570112,-480
599617636218257280,-427
599617636225944448,-117
599617636233631616,-112
599617636241318912,-66
599617636249006080,0
599617636256693248,-31
599617636264380416,-33
599617636272067584,0
599617636279754752,0
599617636287442048,0
599617636295129216,14
599617636302816384,23
599617636310503552,26
599617636318190720,33
599617636325878016,47
599617636333565184,57
599617636341252352,71
599617636348939520,88
599617636356626688,102
599617636364313984,117
599617636372001152,133
599617636379688320,152
599617636387375488,174
599617636395062656,198
599617636402749824,212
599617636410437120,222
599617636418124288,224
599617636425811456,219
599617636433498624,205
599617636441185792,179
599617636448873088,131
599617636456560256,71
599617636464247424,16
599617636471934592,-31
599617636479621760,-69
599617636487308928,-93
599617636494996224,-102
599617636502683392,-109
599617636510370560,-112
599617636518057728,-107
599617636525744896,-102
599617636533432192,-100
599617636541119360,-102
599617636548806528,-97
599617636556493696,-90
599617636564180864,-88
599617636571868032,-81
599617636579555328,-74
599617636587242496,-69
599617636594929664,-66
599617636602616832,-62
599617636610304000,-52
599617636617991296,-47
599617636625678464,-50
599617636633365632,-42
599617636641052800,-31
599617636648739968,-31
599617636656427264,-31
599617636664114432,-28
599617636671801600,-28
599617636679488768,-28
599617636687176032,-33
599617636694863232,-33
599617636702550400,-28
599617636710237568,-28
599617636717924864,-26
599617636725612032,-26
599617636733299200,-26
599617636740986368,-23
599617636748673536,-23
599617636756360704,-23
599617636764048000,-21
599617636771735168,-21
599617636779422336,-23
599617636787109504,-26
599617636794796672,-26
599617636802483968,-31
599617636810171136,-45
599617636817858304,-45
599617636825545472,-14
599617636833232640,14
599617636840919808,19
599617636848607104,28
599617636856294272,33
599617636863981440,7
599617636871668608,-11
599617636879355776,-4
599617636887043072,-2
599617636894730240,-7
599617636902417408,-4
599617636910104576,0
599617636917791744,0
599617636925479040,0
599617636933166208,-11
599617636940853376,-100
599617636948540544,-260
599617636956227712,-222
599617636963914880,305
599617636971602176,1127
599617636979289344,1409
599617636986976512,582
599617636994663680,-382
599617637002350848,-410
599617637010038144,-117
599617637017725312,-97
599617637025412480,-71
599617637033099648,-16
599617637040786816,-35
599617637048473984,-35
599617637056161280,-9
599617637063848448,-9
599617637071535616,-7
599617637079222784,9
599617637086909952,14
599617637094597248,14
599617637102284416,23
599617637109971584,33
599617637117658752,40
599617637125345920,54
599617637133033088,69
599617637140720384,81
599617637148407552,97
599617637156094720,117
599617637163781888,136
599617637171469056,155
599617637179156352,174
599617637186843520,193
599617637194530688,200
599617637202217856,200
599617637209905024,203
599617637217592320,195
599617637225279488,169
599617637232966656,131
599617637240653824,83
599617637248341016,23
599617637256028288,-23
599617637263715584,-57
599617637271403008,-81
599617637279090304,-95
599617637286777600,-105
599617637294464896,-109
599617637302152320,-107
599617637309839616,-100
599617637317526912,-100
599617637325214208,-102
599617637332901632,-95
599617637340588928,-85
599617637348276224,-83
599617637355963648,-76
599617637363650944,-69
599617637371338240,-66
599617637379025536,-62
599617637386712960,-54
599617637394400256,-50
599617637402087552,-45
599617637409774848,-42
599617637417462272,-38
599617637425149568,-31
599617637432836864,-26
599617637440524288,-28
599617637448211584,-33
599617637455898880,-31
599617637463586176,-28
599617637471273600,-26
599617637478960896,-23
599617637486648192,-28
599617637494335488,-28
599617637502022912,-26
599617637509710208,-26
599617637517397504,-28
599617637525084928,-35
599617637532772224,-45
599617637540459520,-52
599617637548146816,-38
599617637555834240,-7
599617637563521536,9
599617637571208832,21
599617637578896128,28
599617637586583552,4
599617637594270848,-16
599617637601958144,-9
599617637609645568,-2
599617637617332864,-9
599617637625020160,-9
599617637632707456,-9
599617637640394880,-9
599617637648082176,-4
599617637655769472,-2
599617637663456768,-50
599617637671144192,-193
599617637678831488,-293
599617637686518784,-2
599617637694206208,747
599617637701893504,1382
599617637709580800,1017
599617637717268096,-83
599617637724955520,-532
599617637732642816,-238
599617637740330112,-88
599617637748017408,-95
599617637755704832,-33
599617637763392128,-23
599617637771079424,-42
599617637778766848,-23
599617637786454144,-7
599617637794141440,-9
599617637801828736,-4
599617637809516170,9
599617637817203200,16
599617637824890240,26
599617637832577280,38
599617637840264320,47
599617637847951360,54
599617637855638400,66
599617637863325568,81
599617637871012608,93
599617637878699648,112
599617637886386688,133
599617637894073728,155
599617637901760768,174
599617637909447808,195
599617637917134848,207
599617637924821888,214
599617637932508928,214
599617637940196096,203
599617637947883136,179
599617637955570176,143
599617637963257216,93
599617637970944256,31
599617637978631296,-21
599617637986318336,-57
599617637994005376,-85
599617638001692416,-105
599617638009379456,-112
599617638017066496,-114
599617638024753664,-117
599617638032440704,-114
599617638040127744,-107
599617638047814784,-102
599617638055501824,-100
599617638063188864,-97
599617638070875904,-90
599617638078562944,-83
599617638086249984,-78
599617638093937024,-74
599617638101624192,-66
599617638109311232,-62
599617638116998272,-57
599617638124685312,-50
599617638132372352,-45
599617638140059392,-40
599617638147746432,-38
599617638155433472,-33
599617638163120512,-31
599617638170807552,-33
599617638178494592,-31
599617638186181760,-33
599617638193868800,-35
599617638201555840,-42
599617638209242880,-52
599617638216929920,-59
599617638224616960,-50
599617638232304000,-26
599617638239991040,-2
599617638247678080,14
599617638255365120,19
599617638263052288,-4
599617638270739328,-26
599617638278426368,-26
599617638286113408,-19
599617638293800448,-19
599617638301487488,-19
599617638309174528,-21
599617638316861568,-19
599617638324548608,-16
599617638332235648,-16
599617638339922816,-59
599617638347609856,-207
599617638355296896,-312
599617638362983936,-23
599617638370670984,735
599617638378358144,1378
599617638386045312,1024
599617638393732480,-50
599617638401419776,-496
599617638409106944,-234
599617638416794112,-100
599617638424481280,-100
599617638432168448,-40
599617638439855616,-35
599617638447542912,-54
599617638455230080,-33
599617638462917248,-19
599617638470604416,-21
599617638478291584,-9
599617638485978880,2
599617638493666048,7
599617638501353216,14
599617638509040384,26
599617638516727552,35
599617638524414720,47
599617638532102016,62
599617638539789184,76
599617638547476352,88
599617638555163520,107
599617638562850688,128
599617638570537984,148
599617638578225152,167
599617638585912320,183
599617638593599488,198
599617638601286656,205
599617638608973952,203
599617638616661120,191
599617638624348288,167
599617638632035456,124
599617638639722624,69
599617638647409792,14
599617638655097088,-33
599617638662784256,-69
599617638670471424,-93
599617638678158592,-107
599617638685845760,-114
599617638693533056,-117
599617638701220224,-117
599617638708907392,-112
599617638716594560,-109
599617638724281728,-105
599617638731968896,-100
599617638739656192,-95
599617638747343360,-90
599617638755030528,-85
599617638762717696,-81
599617638770404864,-74
599617638778092160,-64
599617638785779328,-59
599617638793466496,-54
599617638801153664,-47
599617638808840832,-42
599617638816528000,-40
599617638824215296,-38
599617638831902464,-35
599617638839589632,-33
599617638847276800,-31
599617638854963968,-33
599617638862651264,-31
599617638870338432,-28
599617638878025600,-28
599617638885712768,-33
599617638893399936,-38
599617638901087232,-40
599617638908774400,-40
599617638916461568,-47
599617638924148736,-57
599617638931835968,-47
599617638939523072,-14
599617638947210240,14
599617638954897280,23
599617638962584448,21
599617638970271616,2
599617638977958656,-16
599617638985645824,-16
599617638993332864,-14
599617639001020032,-14
599617639008707200,-11
599617639016394240,-9
599617639024081408,-14
599617639031768576,-9
599617639039455616,-9
599617639047142784,-57
599617639054829952,-203
599617639062516992,-293
599617639070204160,16
599617639077891328,773
599617639085578368,1375
599617639093265536,979
599617639100952576,-85
599617639108639744,-496
599617639116326912,-217
599617639124013952,-83
599617639131701120,-93
599617639139388288,-42
599617639147075328,-31
599617639154762496,-45
599617639162449664,-26
599617639170136704,-11
599617639177823872,-11
599617639185510912,-4
599617639193198080,9
599617639200885248,16
599617639208572288,21
599617639216259456,28
599617639223946624,42
599617639231633664,54
599617639239320832,64
599617639247008000,81
599617639254695040,97
599617639262382208,109
599617639270069376,126
599617639277756416,150
599617639285443584,167
599617639293130624,179
599617639300817792,188
599617639308504960,195
599617639316192000,195
599617639323879168,186
599617639331566336,167
599617639339253376,131
599617639346940544,81
599617639354627712,26
599617639362314752,-23
599617639370001920,-59
599617639377688960,-93
599617639385376128,-114
599617639393063296,-124
599617639400750336,-124
599617639408437504,-124
599617639416124672,-121
599617639423811712,-112
599617639431498880,-100
599617639439186048,-93
599617639446873088,-95
599617639454560256,-93
599617639462247296,-83
599617639469934464,-76
599617639477621632,-71
599617639485308672,-66
599617639492995865,-62
599617639500682624,-59
599617639508369408,-59
599617639516056320,-59
599617639523743104,-54
599617639531430016,-47
599617639539116800,-45
599617639546803712,-47
599617639554490496,-50
599617639562177408,-45
599617639569864192,-47
599617639577551104,-52
599617639585237888,-42
599617639592924800,-38
599617639600611584,-45
599617639608298368,-47
599617639615985280,-42
599617639623672064,-45
599617639631358976,-52
599617639639045760,-52
599617639646732672,-52
599617639654419456,-59
599617639662106368,-54
599617639669793152,-35
599617639677480064,-14
599617639685166848,2
599617639692853760,14
599617639700540544,0
599617639708227328,-28
599617639715914240,-28
599617639723601024,-19
599617639731287936,-19
599617639738974720,-19
599617639746661632,-21
599617639754348416,-21
599617639762035328,-19
599617639769722112,-16
599617639777409024,-42
599617639785095808,-160
599617639792782720,-303
599617639800469504,-160
599617639808156288,492
599617639815843200,1256
599617639823529984,1191
599617639831216896,117
599617639838903680,-609
599617639846590592,-367
599617639854277376,-124
599617639861964288,-131
599617639869651072,-35
599617639877337984,7
599617639885024768,-42
599617639892711680,-23
599617639900398464,11
599617639908085376,2
599617639915772160,2
599617639923458944,21
599617639931145856,26
599617639938832640,31
599617639946519552,42
599617639954206336,52
599617639961893248,64
599617639969580032,85
599617639977266944,100
599617639984953728,112
599617639992640640,131
599617640000327424,152
599617640008014336,169
599617640015701120,188
599617640023387904,203
599617640031074816,214
599617640038761600,224
599617640046448512,226
599617640054135418,214
599617640061822848,195
599617640069510272,169
599617640077197696,128
599617640084884992,71
599617640092572416,16
599617640100259840,-21
599617640107947264,-50
599617640115634688,-74
599617640123322112,-85
599617640131009408,-90
599617640138696832,-90
599617640146384256,-83
599617640154071680,-74
599617640161759104,-76
599617640169446400,-76
599617640177133824,-66
599617640184821248,-59
599617640192508672,-54
599617640200196096,-47
599617640207883520,-40
599617640215570816,-38
599617640223258240,-35
599617640230945664,-31
599617640238633088,-26
599617640246320512,-23
599617640254007808,-21
599617640261695232,-21
599617640269382656,-21
599617640277070080,-21
599617640284757504,-16
599617640292444928,-14
599617640300132224,-16
599617640307819648,-19
599617640315507072,-16
599617640323194496,-19
599617640330881920,-19
599617640338569216,-14
599617640346256640,-16
599617640353944064,-19
599617640361631488,-19
599617640369318912,-16
599617640377006208,-21
599617640384693632,-26
599617640392381056,-35
599617640400068480,-45
599617640407755904,-35
599617640415443328,-4
599617640423130624,16
599617640430818048,28
599617640438505472,33
599617640446192896,14
599617640453880320,-11
599617640461567616,-7
599617640469255040,0
599617640476942464,-9
599617640484629888,-11
599617640492317312,-4
599617640500004736,-4
599617640507692032,-7
599617640515379456,-9
599617640523066880,-33
599617640530754304,-155
599617640538441728,-293
599617640546129024,-117
599617640553816448,563
599617640561503872,1325
599617640569191296,1230
599617640576878720,155
599617640584566144,-539
599617640592253440,-312
599617640599940864,-93
599617640607628288,-109
599617640615315659,-42
599617640623002880,-4
599617640630690048,-40
599617640638377088,-28
599617640646064256,2
599617640653751424,-2
599617640661438464,0
599617640669125632,16
599617640676812672,21
599617640684499840,26
599617640692187008,38
599617640699874048,45
599617640707561216,50
599617640715248384,62
599617640722935424,78
599617640730622592,90
599617640738309760,107
599617640745996800,124
599617640753683968,143
599617640761371136,160
599617640769058176,171
599617640776745344,183
599617640784432384,188
599617640792119552,186
599617640799806720,179
599617640807493760,162
599617640815180928,136
599617640822868096,93
599617640830555136,42
599617640838242304,-7
599617640845929472,-40
599617640853616512,-64
599617640861303680,-88
599617640868990720,-102
599617640876677888,-102
599617640884365056,-100
599617640892052096,-97
599617640899739264,-97
599617640907426432,-93
599617640915113472,-85
599617640922800640,-83
599617640930487808,-78
599617640938174848,-71
599617640945862016,-69
599617640953549184,-66
599617640961236224,-59
599617640968923392,-54
599617640976610432,-50
599617640984297600,-50
599617640991984768,-50
599617640999671808,-42
599617641007358976,-35
599617641015046144,-35
599617641022733184,-38
599617641030420352,-35
599617641038107520,-33
599617641045794560,-33
599617641053481728,-33
599617641061168768,-31
599617641068855936,-31
599617641076543104,-31
599617641084230144,-31
599617641091917312,-31
599617641099604480,-28
599617641107291520,-26
599617641114978688,-28
599617641122665856,-28
599617641130352896,-26
599617641138040064,-23
599617641145727104,-21
599617641153414272,-21
599617641161101440,-19
599617641168788480,-19
599617641176475556,-14
599617641184162560,-14
599617641191849600,-19
599617641199536640,-19
599617641207223680,-21
599617641214910720,-28
599617641222597760,-38
599617641230284928,-38
599617641237971968,-19
599617641245659008,11
599617641253346048,26
599617641261033088,33
599617641268720128,40
599617641276407168,19
599617641284094208,-9
599617641291781248,-9
599617641299468288,-2
599617641307155456,-4
599617641314842496,-4
599617641322529536,-2
599617641330216576,0
599617641337903616,0
599617641345590656,-4
599617641353277696,-66
599617641360964736,-222
599617641368651776,-281
599617641376338816,93
599617641384025856,890
599617641391713024,1445
599617641399400064,955
599617641407087104,-95
599617641414774144,-422
599617641422461184,-167
599617641430148224,-88
599617641437835264,-93
599617641445522304,-40
599617641453209344,-42
599617641460896384,-59
599617641468583552,-33
599617641476270592,-19
599617641483957632,-21
599617641491644672,-11
599617641499331712,-2
599617641507018752,2
599617641514705792,11
599617641522392832,21
599617641530079872,28
599617641537766912,38
599617641545453952,47
599617641553141120,57
599617641560828160,74
599617641568515200,88
599617641576202240,105
599617641583889280,119
599617641591576320,133
599617641599263360,148
599617641606950400,157
599617641614637440,164
599617641622324480,162
599617641630011648,155
599617641637698688,138
599617641645385728,114
599617641653072768,78
599617641660759808,33
599617641668446848,-9
599617641676133888,-40
599617641683820928,-62
599617641691507968,-78
599617641699195008,-90
599617641706882176,-97
599617641714569216,-93
599617641722256256,-88
599617641729943296,-85
599617641737630370,-83
599617641745317504,-78
599617641753004672,-74
599617641760691840,-66
599617641768379136,-62
599617641776066304,-59
599617641783753472,-52
599617641791440640,-47
599617641799127808,-47
599617641806814976,-42
599617641814502272,-42
599617641822189440,-42
599617641829876608,-35
599617641837563776,-28
599617641845250944,-28
599617641852938240,-26
599617641860625408,-28
599617641868312576,-33
599617641875999744,-28
599617641883686912,-23
599617641891374080,-28
599617641899061376,-31
599617641906748544,-26
599617641914435712,-23
599617641922122880,-26
599617641929810048,-21
599617641937497344,-19
599617641945184512,-21
599617641952871680,-19
599617641960558848,-19
599617641968246016,-21
599617641975933312,-16
599617641983620480,-16
599617641991307648,-21
599617641998994816,-21
599617642006681984,-16
599617642014369152,-14
599617642022056448,-16
599617642029743616,-14
599617642037430784,-14
599617642045117952,-19
599617642052805120,-23
599617642060492416,-31
599617642068179584,-35
599617642075866752,-16
599617642083553920,16
599617642091241088,31
599617642098928256,33
599617642106615552,31
599617642114302720,7
599617642121989888,-14
599617642129677056,-11
599617642137364224,-2
599617642145051520,-9
599617642152738688,-11
599617642160425856,-7
599617642168113024,-2
599617642175800192,-4
599617642183487360,-21
599617642191174656,-107
599617642198861824,-260
599617642206548992,-207
599617642214236160,324
599617642221923328,1113
599617642229610624,1332
599617642237297792,477
599617642244984960,-453
599617642252672128,-441
599617642260359296,-140
599617642268046592,-119
599617642275733760,-81
599617642283420928,-21
599617642291108096,-50
599617642298795354,-47
599617642306482560,-14
599617642314169728,-9
599617642321856768,-9
599617642329543936,0
599617642337231104,9
599617642344918144,16
599617642352605312,21
599617642360292352,31
599617642367979520,42
599617642375666688,52
599617642383353728,66
599617642391040896,81
599617642398728064,95
599617642406415104,109
599617642414102272,124
599617642421789440,140
599617642429476480,157
599617642437163648,171
599617642444850816,181
599617642452537856,183
599617642460225024,181
599617642467912064,174
599617642475599232,155
599617642483286400,119
599617642490973440,66
599617642498660608,19
599617642506347776,-19
599617642514034816,-59
599617642521721984,-90
599617642529409152,-102
599617642537096192,-105
599617642544783360,-112
599617642552470400,-117
599617642560157568,-112
599617642567844736,-109
599617642575531776,-105
599617642583218944,-95
599617642590906112,-90
599617642598593152,-90
599617642606280320,-83
599617642613967488,-74
599617642621654528,-71
599617642629341696,-66
599617642637028864,-59
599617642644715904,-57
599617642652403072,-50
599617642660090112,-42
599617642667777280,-42
599617642675464448,-42
599617642683151488,-35
599617642690838656,-35
599617642698525824,-40
599617642706212864,-38
599617642713900032,-33
599617642721587200,-33
599617642729274240,-33
599617642736961408,-33
599617642744648448,-35
599617642752335616,-35
599617642760022784,-28
599617642767709824,-21
599617642775396992,-23
599617642783084160,-28
599617642790771200,-26
599617642798458368,-21
599617642806145536,-28
599617642813832576,-35
599617642821519744,-40
599617642829206784,-45
599617642836893952,-21
599617642844581120,7
599617642852268160,14
599617642859955251,23
599617642867642368,26
599617642875329536,7
599617642883016576,-7
599617642890703744,-2
599617642898390912,-2
599617642906077952,-7
599617642913765120,-2
599617642921452160,-2
599617642929139328,0
599617642936826496,4
599617642944513536,-2
599617642952200704,-74
599617642959887872,-224
599617642967574912,-248
599617642975262080,186
599617642982949248,991
599617642990636288,1399
599617642998323456,692
599617643006010624,-363
599617643013697664,-499
599617643021384832,-160
599617643029071872,-107
599617643036759040,-71
599617643044446208,14
599617643052133248,-11
599617643059820416,-31
599617643067507584,4
599617643075194624,11
599617643082881792,4
599617643090568960,14
599617643098256000,26
599617643105943168,31
599617643113630208,42
599617643121317376,52
599617643129004544,54
599617643136691584,62
599617643144378752,76
599617643152065920,93
599617643159752960,109
599617643167440128,128
599617643175127296,143
599617643182814336,155
599617643190501504,171
599617643198188672,191
599617643205875712,200
599617643213562880,200
599617643221249920,195
599617643228937088,186
599617643236624256,164
599617643244311296,126
599617643251998464,81
599617643259685632,23
599617643267372672,-23
599617643275059840,-54
599617643282747008,-78
599617643290434048,-93
599617643298121216,-102
599617643305808256,-105
599617643313495424,-105
599617643321182592,-100
599617643328869632,-95
599617643336556800,-90
599617643344243968,-85
599617643351931008,-83
599617643359618176,-76
599617643367305344,-69
599617643374992384,-64
599617643382679552,-62
599617643390366592,-52
599617643398053760,-42
599617643405740928,-40
599617643413427968,-38
599617643421115148,-33
599617643428802304,-31
599617643436489472,-31
599617643444176512,-28
599617643451863680,-26
599617643459550848,-26
599617643467237888,-26
599617643474925056,-28
599617643482612096,-28
599617643490299264,-23
599617643497986432,-21
599617643505673472,-21
599617643513360640,-23
599617643521047808,-23
599617643528734848,-21
599617643536422016,-19
599617643544109184,-19
599617643551796224,-21
599617643559483392,-19
599617643567170560,-19
599617643574857600,-19
599617643582544768,-19
599617643590231808,-14
599617643597918976,-14
599617643605606144,-21
599617643613293184,-28
599617643620980352,-33
599617643628667520,-38
599617643636354560,-19
599617643644041728,14
599617643651728896,26
599617643659415936,33
599617643667103104,40
599617643674790144,19
599617643682477312,-7
599617643690164480,-4
599617643697851520,2
599617643705538688,-2
599617643713225856,0
599617643720912896,4
599617643728600064,0
599617643736287232,0
599617643743974272,-2
599617643751661440,-66
599617643759348608,-226
599617643767035648,-272
599617643774722816,124
599617643782409856,919
599617643790097024,1425
599617643797784192,864
599617643805471232,-183
599617643813158400,-446
599617643820845568,-162
599617643828532608,-88
599617643836219776,-83
599617643843906944,-26
599617643851593984,-33
599617643859281152,-42
599617643866968192,-16
599617643874655360,-11
599617643882342528,-14
599617643890029568,0
599617643897716736,7
599617643905403904,9
599617643913090944,19
599617643920778112,28
599617643928465280,35
599617643936152320,45
599617643943839488,54
599617643951526528,66
599617643959213696,85
599617643966900864,95
599617643974587904,107
599617643982275045,126
599617643989962240,143
599617643997649408,155
599617644005336448,167
599617644013023616,169
599617644020710784,164
599617644028397824,155
599617644036084992,138
599617644043772032,109
599617644051459200,64
599617644059146368,16
599617644066833408,-26
599617644074520576,-57
599617644082207744,-74
599617644089894784,-88
599617644097581952,-100
599617644105269120,-107
599617644112956160,-105
599617644120643328,-100
599617644128330496,-100
599617644136017536,-97
599617644143704704,-93
599617644151391744,-88
599617644159078912,-83
599617644166766080,-76
599617644174453120,-69
599617644182140288,-64
599617644189827456,-59
599617644197514496,-54
599617644205201664,-45
599617644212888832,-40
599617644220575872,-40
599617644228263040,-35
599617644235950080,-31
599617644243637248,-31
599617644251324416,-33
599617644259011456,-31
599617644266698624,-28
599617644274385792,-28
599617644282072832,-28
599617644289760000,-28
599617644297447168,-31
599617644305134208,-26
599617644312821376,-23
599617644320508544,-26
599617644328195584,-26
599617644335882752,-28
599617644343569792,-28
599617644351256960,-26
599617644358944128,-23
599617644366631168,-23
599617644374318336,-26
599617644382005504,-21
599617644389692544,-16
599617644397379712,-16
599617644405066880,-19
599617644412753920,-21
599617644420441088,-21
599617644428128128,-23
599617644435815296,-31
599617644443502464,-40
599617644451189504,-47
599617644458876672,-31
599617644466563840,0
599617644474250880,19
599617644481938048,23
599617644489625216,26
599617644497312256,14
599617644504999424,-7
599617644512686464,-16
599617644520373632,-14
599617644528060800,-16
599617644535747840,-14
599617644543434942,-4
599617644551122048,-7
599617644558809216,-14
599617644566496256,-11
599617644574183424,-42
599617644581870592,-179
599617644589557632,-296
599617644597244800,-52
599617644604931840,649
599617644612619008,1328
599617644620306176,1129
599617644627993216,102
599617644635680384,-484
599617644643367552,-279
599617644651054592,-100
599617644658741760,-102
599617644666428928,-50
599617644674115968,-33
599617644681803136,-57
599617644689490304,-38
599617644697177344,-21
599617644704864512,-28
599617644712551552,-16
599617644720238720,2
599617644727925888,4
599617644735612928,9
599617644743300096,23
599617644750987264,33
599617644758674304,42
599617644766361472,52
599617644774048640,64
599617644781735680,81
599617644789422848,97
599617644797109888,112
599617644804797056,126
599617644812484224,143
599617644820171264,160
599617644827858432,167
599617644835545600,174
599617644843232640,181
599617644850919808,169
599617644858606976,150
599617644866294016,131
599617644873981184,93
599617644881668352,35
599617644889355392,-9
599617644897042560,-42
599617644904729600,-71
599617644912416768,-95
599617644920103936,-109
599617644927790976,-119
599617644935478144,-119
599617644943165312,-119
599617644950852352,-119
599617644958539520,-114
599617644966226688,-114
599617644973913728,-109
599617644981600896,-100
599617644989287936,-88
599617644996975104,-85
599617645004662272,-83
599617645012349312,-76
599617645020036480,-64
599617645027723648,-54
599617645035410688,-50
599617645043097856,-50
599617645050785024,-47
599617645058472064,-40
599617645066159232,-42
599617645073846272,-42
599617645081533440,-38
599617645089220608,-35
599617645096907648,-38
599617645104594839,-40
599617645112281984,-40
599617645119969152,-40
599617645127656192,-38
599617645135343360,-35
599617645143030528,-38
599617645150717568,-40
599617645158404736,-40
599617645166091776,-40
599617645173778944,-38
599617645181466112,-35
599617645189153152,-38
599617645196840320,-42
599617645204527488,-47
599617645212214528,-50
599617645219901696,-59
599617645227588864,-52
599617645235275904,-21
599617645242963072,0
599617645250650240,7
599617645258337280,16
599617645266024448,-2
599617645273711488,-31
599617645281398656,-31
599617645289085824,-26
599617645296772864,-31
599617645304460032,-31
599617645312147200,-23
599617645319834240,-19
599617645327521408,-21
599617645335208576,-26
599617645342895616,-57
599617645350582784,-183
599617645358269824,-303
599617645365956992,-54
599617645373644160,673
599617645381331200,1330
599617645389018368,1010
599617645396705536,-114
599617645404392576,-609
599617645412079744,-286
599617645419766912,-124
599617645427453952,-128
599617645435141120,-26
599617645442828288,-4
599617645450515328,-42
599617645458202496,-16
599617645465889536,9
599617645473576704,2
599617645481263872,7
599617645488950912,21
599617645496638080,28
599617645504325248,40
599617645512012288,52
599617645519699456,59
599617645527386624,71
599617645535073664,90
599617645542760832,105
599617645550447872,117
599617645558135040,136
599617645565822208,157
599617645573509248,174
599617645581196416,193
599617645588883584,210
599617645596570624,219
599617645604257792,222
599617645611944960,222
599617645619632000,212
599617645627319168,195
599617645635006336,160
599617645642693376,109
599617645650380544,57
599617645658067584,0
599617645665754740,-42
599617645673441920,-71
599617645681129088,-90
599617645688816128,-102
599617645696503296,-107
599617645704190464,-112
599617645711877504,-114
599617645719564672,-105
599617645727251712,-97
599617645734938880,-93
599617645742626048,-88
599617645750313088,-83
599617645758000256,-78
599617645765687424,-66
599617645773374464,-64
599617645781061632,-64
599617645788748800,-57
599617645796435840,-52
599617645804123008,-50
599617645811810176,-42
599617645819497216,-40
599617645827184384,-38
599617645834871424,-31
599617645842558592,-31
599617645850245760,-35
599617645857932800,-38
599617645865619968,-33
599617645873307136,-35
599617645880994176,-38
599617645888681344,-38
599617645896368512,-35
599617645904055552,-31
599617645911742720,-31
599617645919429760,-31
599617645927116928,-28
599617645934804096,-23
599617645942491136,-21
599617645950178304,-19
599617645957865472,-16
599617645965552512,-21
599617645973239680,-23
599617645980926848,-28
599617645988613888,-35
599617645996301056,-40
599617646003988224,-28
599617646011675264,0
599617646019362432,19
599617646027049472,28
599617646034736640,38
599617646042423808,23
599617646050110848,-2
599617646057798016,-4
599617646065485184,4
599617646073172224,2
599617646080859392,-2
599617646088546560,2
599617646096233600,4
599617646103920768,2
599617646111607808,2
599617646119294976,-33
599617646126982144,-167
599617646134669184,-291
599617646142356352,-54
599617646150043520,668
599617646157730560,1373
599617646165417728,1148
599617646173104896,66
599617646180791936,-506
599617646188479104,-260
599617646196166144,-90
599617646203853312,-95
599617646211540480,-23
599617646219227520,-4
599617646226914637,-38
599617646234601856,-16
599617646242289024,4
599617646249976064,0
599617646257663232,9
599617646265350400,23
599617646273037440,26
599617646280724608,31
599617646288411648,38
599617646296098816,45
599617646303785984,57
599617646311473024,69
599617646319160192,81
599617646326847360,95
599617646334534400,112
599617646342221568,128
599617646349908736,145
599617646357595776,167
599617646365282944,181
599617646372970112,188
599617646380657152,193
599617646388344320,195
599617646396031360,186
599617646403718528,169
599617646411405696,140
599617646419092736,97
599617646426779904,45
599617646434467072,-4
599617646442154112,-42
599617646449841280,-66
599617646457528448,-88
599617646465215488,-100
599617646472902656,-102
599617646480589696,-105
599617646488276864,-102
599617646495964032,-95
599617646503651072,-93
599617646511338240,-90
599617646519025408,-81
599617646526712448,-74
599617646534399616,-71
599617646542086784,-69
599617646549773824,-64
599617646557460992,-59
599617646565148160,-52
599617646572835200,-45
599617646580522368,-42
599617646588209408,-38
599617646595896576,-33
599617646603583744,-31
599617646611270784,-28
599617646618957952,-26
599617646626645120,-23
599617646634332160,-23
599617646642019328,-23
599617646649706496,-26
599617646657393536,-28
599617646665080704,-23
599617646672767744,-21
599617646680454912,-23
599617646688142080,-23
599617646695829120,-23
599617646703516288,-21
599617646711203456,-19
599617646718890496,-16
599617646726577664,-14
599617646734264832,-14
599617646741951872,-16
599617646749639040,-16
599617646757326080,-14
599617646765013248,-9
599617646772700416,-11
599617646780387456,-11
599617646788074534,-7
599617646795761408,-9
599617646803448320,-11
599617646811135232,-14
599617646818822144,-21
599617646826509056,-31
599617646834195968,-31
599617646841882880,-4
599617646849569792,26
599617646857256704,31
599617646864943616,33
599617646872630528,35
599617646880317440,14
599617646888004352,-7
599617646895691264,-4
599617646903378176,0
599617646911065088,-4
599617646918752000,-4
599617646926438912,-2
599617646934125824,-2
599617646941812736,0
599617646949499648,-11
599617646957186560,-95
599617646964873472,-255
599617646972560384,-246
599617646980247296,243
599617646987934208,1060
599617646995621120,1433
599617647003308032,733
599617647010994944,-238
599617647018681856,-379
599617647026368768,-128
599617647034055680,-100
599617647041742592,-83
599617647049429504,-33
599617647057116416,-50
599617647064803328,-57
599617647072490240,-28
599617647080177152,-21
599617647087864064,-21
599617647095550976,-9
599617647103237888,0
599617647110924800,4
599617647118611712,11
599617647126298624,21
599617647133985536,28
599617647141672448,35
599617647149359360,50
599617647157046272,64
599617647164733184,78
599617647172420096,95
599617647180107008,109
599617647187793920,121
599617647195480832,140
599617647203167744,160
599617647210854656,169
599617647218541568,169
599617647226228480,167
599617647233915392,155
599617647241602304,138
599617647249289216,112
599617647256976128,74
599617647264663040,21
599617647272349952,-23
599617647280036864,-57
599617647287723776,-81
599617647295410688,-97
599617647303097600,-107
599617647310784512,-107
599617647318471424,-107
599617647326158336,-105
599617647333845248,-97
599617647341532160,-93
599617647349219174,-93
599617647356906368,-88
599617647364593536,-83
599617647372280704,-76
599617647379968000,-69
599617647387655168,-62
599617647395342336,-52
599617647403029504,-52
599617647410716672,-50
599617647418403840,-40
599617647426091136,-38
599617647433778304,-38
599617647441465472,-31
599617647449152640,-31
599617647456839808,-33
599617647464527104,-31
599617647472214272,-28
599617647479901440,-26
599617647487588608,-23
599617647495275776,-26
599617647502962944,-31
599617647510650240,-28
599617647518337408,-21
599617647526024576,-21
599617647533711744,-26
599617647541398912,-23
599617647549086208,-21
599617647556773376,-21
599617647564460544,-14
599617647572147712,-9
599617647579834880,-16
599617647587522176,-19
599617647595209344,-14
599617647602896512,-14
599617647610583680,-19
599617647618270848,-14
599617647625958016,-11
599617647633645312,-16
599617647641332480,-16
599617647649019648,-16
599617647656706816,-28
599617647664393984,-31
599617647672081280,-9
599617647679768448,14
599617647687455616,26
599617647695142784,33
599617647702829952,28
599617647710517120,4
599617647718204416,-11
599617647725891584,-9
599617647733578752,-4
599617647741265920,-7
599617647748953088,-9
599617647756640384,-11
599617647764327552,-4
599617647772014720,2
599617647779701888,-14
599617647787389056,-109
599617647795076224,-260
599617647802763520,-191
599617647810450688,377
599617647818137856,1165
599617647825825024,1306
599617647833512192,389
599617647841199488,-492
599617647848886656,-417
599617647856573824,-133
599617647864260992,-119
599617647871948160,-57
599617647879635456,2
599617647887322624,-35
599617647895009792,-31
599617647902696960,2
599617647910384158,0
599617647918070912,0
599617647925757696,16
599617647933444608,23
599617647941131392,26
599617647948818304,33
599617647956505088,42
599617647964192000,59
599617647971878784,74
599617647979565696,83
599617647987252480,97
599617647994939392,112
599617648002626176,126
599617648010313088,143
599617648017999872,162
599617648025686656,183
599617648033373568,203
599617648041060352,212
599617648048747264,210
599617648056434048,205
599617648064120960,198
599617648071807744,176
599617648079494656,133
599617648087181440,76
599617648094868352,23
599617648102555136,-19
599617648110242048,-54
599617648117928832,-83
599617648125615616,-97
599617648133302528,-109
599617648140989312,-117
599617648148676224,-117
599617648156363008,-114
599617648164049920,-112
599617648171736704,-105
599617648179423616,-97
599617648187110400,-93
599617648194797312,-90
599617648202484096,-88
599617648210171008,-78
599617648217857792,-69
599617648225544576,-66
599617648233231488,-64
599617648240918272,-54
599617648248605184,-47
599617648256291968,-42
599617648263978880,-42
599617648271665664,-40
599617648279352576,-38
599617648287039360,-33
599617648294726272,-33
599617648302413056,-35
599617648310099968,-35
599617648317786752,-38
599617648325473536,-35
599617648333160448,-31
599617648340847232,-26
599617648348534144,-28
599617648356220928,-28
599617648363907840,-28
599617648371594624,-23
599617648379281536,-19
599617648386968320,-23
599617648394655232,-28
599617648402342016,-28
599617648410028928,-35
599617648417715712,-47
599617648425402496,-50
599617648433089408,-26
599617648440776192,7
599617648448463104,16
599617648456149888,26
599617648463836800,31
599617648471523707,7
599617648479210880,-11
599617648486898048,-9
599617648494585088,-2
599617648502272256,-4
599617648509959424,-9
599617648517646464,-7
599617648525333632,-4
599617648533020672,-2
599617648540707840,-7
599617648548395008,-64
599617648556082048,-222
599617648563769216,-289
599617648571456384,93
599617648579143424,900
599617648586830592,1423
599617648594517760,843
599617648602204800,-267
599617648609891968,-527
599617648617579136,-191
599617648625266176,-109
599617648632953344,-93
599617648640640384,-2
599617648648327552,-14
599617648656014720,-38
599617648663701760,-4
599617648671388928,9
599617648679076096,0
599617648686763136,11
599617648694450304,23
599617648702137472,28
599617648709824512,38
599617648717511680,52
599617648725198720,62
599617648732885888,71
599617648740573056,78
599617648748260096,88
599617648755947264,109
599617648763634432,128
599617648771321472,148
599617648779008640,169
599617648786695808,186
599617648794382848,200
599617648802070016,214
599617648809757184,219
599617648817444224,219
599617648825131392,207
599617648832818432,181
599617648840505600,140
599617648848192768,88
599617648855879808,31
599617648863566976,-11
599617648871254144,-47
599617648878941184,-81
599617648886628352,-100
599617648894315520,-105
599617648902002560,-107
599617648909689728,-107
599617648917376768,-105
599617648925063936,-102
599617648932751104,-97
599617648940438144,-90
599617648948125312,-85
599617648955812480,-83
599617648963499520,-78
599617648971186688,-71
599617648978873856,-64
599617648986560896,-57
599617648994248064,-50
599617649001935104,-42
599617649009622272,-38
599617649017309440,-35
599617649024996480,-35
599617649032683604,-31
599617649040370816,-26
599617649048057984,-23
599617649055745024,-23
599617649063432192,-21
599617649071119360,-23
599617649078806400,-23
599617649086493568,-21
599617649094180608,-23
599617649101867776,-26
599617649109554944,-21
599617649117241984,-16
599617649124929152,-19
599617649132616320,-19
599617649140303360,-19
599617649147990528,-16
