599618150484398720,-7
599618150492091008,-78
599618150499783296,57
599618150507475584,246
599618150515168000,332
599618150522860288,427
599618150530552576,551
599618150538244864,630
599618150545937152,685
599618150553629440,747
599618150561321856,802
599618150569014144,855
599618150576706432,919
599618150584398720,986
599618150592091008,1053
599618150599783296,1120
599618150607475584,1187
599618150615168000,1253
599618150622860288,1320
599618150630552576,1385
599618150638244864,1442
599618150645937152,1497
599618150653629440,1550
599618150661321856,1605
599618150669014144,1652
599618150676706432,1698
599618150684398720,1741
599618150692091008,1784
599618150699783296,1817
599618150707475584,1851
599618150715168000,1889
599618150722860288,1925
599618150730552576,1946
599618150738244864,1970
599618150745937152,1996
599618150753629440,2020
599618150761321856,2032
599618150769014144,2044
599618150776706432,2063
599618150784398720,2075
599618150792091008,2080
599618150799783296,2092
599618150807475584,2104
599618150815168000,2109
599618150822860288,2106
599618150830552576,2106
599618150838244864,2104
599618150845937152,2109
599618150853629440,2128
599618150861321856,2154
599618150869014144,2168
599618150876706432,2175
599618150884398720,2166
599618150892091008,2144
599618150899783296,2137
599618150907475584,2137
599618150915168000,2130
599618150922860288,2123
599618150930552576,2118
599618150938244864,2113
599618150945937152,2104
599618150953629440,2097
599618150961321856,2085
599618150969014144,2018
599618150976706432,1865
599618150984398720,1824
599618150992091008,2180
599618150999783296,2844
599618151007475584,3181
599618151015168000,2629
599618151022860288,1765
599618151030552576,1595
599618151038244859,1829
599618151045932032,1879
599618151053619200,1910
599618151061306240,1968
599618151068993408,1932
599618151076680576,1908
599618151084367616,1927
599618151092054784,1913
599618151099741824,1894
599618151107428992,1896
599618151115116160,1894
599618151122803200,1872
599618151130490368,1863
599618151138177536,1863
599618151145864576,1855
599618151153551744,1846
599618151161238912,1839
599618151168925952,1841
599618151176613120,1841
599618151184300288,1839
599618151191987328,1843
599618151199674496,1846
599618151207361536,1843
599618151215048704,1836
599618151222735872,1829
599618151230422912,1820
599618151238110080,1800
599618151245797248,1765
599618151253484288,1726
599618151261171456,1683
599618151268858624,1617
599618151276545664,1550
599618151284232832,1507
599618151291919872,1471
599618151299607040,1430
599618151307294208,1404
599618151314981248,1390
599618151322668416,1375
599618151330355584,1361
599618151338042624,1349
599618151345729792,1335
599618151353416960,1325
599618151361104000,1318
599618151368791168,1308
599618151376478336,1304
599618151384165376,1294
599618151391852544,1285
599618151399539584,1275
599618151407226752,1268
599618151414913920,1258
599618151422600960,1251
599618151430288128,1244
599618151437975296,1234
599618151445662336,1225
599618151453349504,1210
599618151461036672,1199
599618151468723712,1191
599618151476410880,1179
599618151484097920,1160
599618151491785088,1148
599618151499472256,1141
599618151507159296,1127
599618151514846464,1113
599618151522533632,1103
599618151530220672,1091
599618151537907840,1077
599618151545595008,1065
599618151553282048,1058
599618151560969216,1050
599618151568656256,1041
599618151576343424,1027
599618151584030592,1015
599618151591717632,1000
599618151599404756,981
599618151607091968,962
599618151614779136,948
599618151622466176,950
599618151630153344,964
599618151637840512,969
599618151645527552,969
599618151653214720,972
599618151660901760,948
599618151668588928,914
599618151676276096,905
599618151683963136,902
599618151691650304,890
599618151699337472,878
599618151707024512,871
599618151714711680,864
599618151722398848,852
599618151730085888,843
599618151737773056,807
599618151745460224,687
599618151753147264,566
599618151760834432,723
599618151768521472,1289
599618151776208640,1879
599618151783895808,1784
599618151791582848,988
599618151799270016,451
599618151806957184,539
599618151814644224,675
599618151822331392,671
599618151830018560,692
599618151837705600,702
599618151845392768,685
599618151853079808,687
599618151860766976,697
599618151868454144,690
599618151876141184,687
599618151883828352,690
599618151891515520,690
599618151899202560,685
599618151906889728,685
599618151914576896,687
599618151922263936,687
599618151929951104,690
599618151937638272,695
599618151945325312,697
599618151953012480,704
599618151960699520,714
599618151968386688,721
599618151976073856,730
599618151983760896,740
599618151991448064,745
599618151999135232,742
599618152006822272,735
599618152014509440,723
599618152022196608,706
599618152029883648,675
599618152037570816,632
599618152045257856,587
599618152052945024,544
599618152060632192,508
599618152068319232,480
599618152076006400,463
599618152083693568,449
599618152091380608,441
599618152099067776,441
599618152106754944,439
599618152114441984,437
599618152122129152,434
599618152129816192,434
599618152137503360,432
599618152145190528,429
599618152152877568,427
599618152160564653,425
599618152168252032,420
599618152175939456,420
599618152183626880,420
599618152191314176,417
599618152199001600,415
599618152206689024,415
599618152214376448,413
599618152222063872,410
599618152229751296,408
599618152237438592,403
599618152245126016,401
599618152252813440,398
599618152260500864,394
599618152268188288,389
599618152275875584,386
599618152283563008,379
599618152291250432,372
599618152298937856,370
599618152306625280,367
599618152314312704,363
599618152322000000,358
599618152329687424,355
599618152337374848,353
599618152345062272,351
599618152352749696,348
599618152360436992,343
599618152368124416,341
599618152375811840,339
599618152383499264,336
599618152391186688,332
599618152398874112,329
599618152406561408,327
599618152414248832,327
599618152421936256,322
599618152429623680,315
599618152437311104,310
599618152444998400,303
599618152452685824,291
599618152460373248,277
599618152468060672,279
599618152475748096,308
599618152483435520,327
599618152491122816,322
599618152498810240,322
599618152506497664,317
599618152514185088,293
599618152521872512,279
599618152529559808,279
599618152537247232,277
599618152544934656,269
599618152552622080,269
599618152560309504,267
599618152567996928,262
599618152575684224,262
599618152583371648,246
599618152591059072,167
599618152598746496,33
599618152606433920,59
599618152614121216,477
599618152621808640,1127
599618152629496064,1380
599618152637183488,792
599618152644870912,26
599618152652558208,-83
599618152660245632,121
599618152667933056,162
599618152675620480,176
599618152683307904,212
599618152690995328,205
599618152698682624,200
599618152706370048,214
599618152714057472,214
599618152721744898,210
599618152729432064,219
599618152737119232,226
599618152744806400,222
599618152752493696,224
599618152760180864,226
599618152767868032,229
599618152775555200,238
599618152783242368,250
599618152790929536,257
599618152798616832,267
599618152806304000,277
599618152813991168,289
599618152821678336,305
599618152829365504,320
599618152837052800,327
599618152844739968,332
599618152852427136,334
599618152860114304,329
599618152867801472,317
599618152875488640,300
599618152883175936,269
599618152890863104,229
599618152898550272,193
599618152906237440,160
599618152913924608,131
599618152921611904,109
599618152929299072,100
599618152936986240,93
599618152944673408,85
599618152952360576,83
599618152960047872,81
599618152967735040,78
599618152975422208,85
599618152983109376,93
599618152990796544,88
599618152998483712,88
599618153006171008,95
599618153013858176,93
599618153021545344,90
599618153029232512,102
599618153036919680,105
599618153044606976,105
599618153052294144,109
599618153059981312,112
599618153067668480,107
599618153075355648,112
599618153083042816,119
599618153090730112,117
599618153098417280,109
599618153106104448,109
599618153113791616,117
599618153121478784,112
599618153129166080,105
599618153136853248,107
599618153144540416,112
599618153152227584,105
599618153159914752,105
599618153167601920,112
599618153175289216,109
599618153182976384,105
599618153190663552,102
599618153198350720,100
599618153206037888,100
599618153213725184,102
599618153221412352,105
599618153229099520,105
599618153236786688,105
599618153244473856,100
599618153252161152,100
599618153259848320,102
599618153267535488,97
599618153275222656,90
599618153282909882,88
599618153290596992,85
599618153298284160,78
599618153305971328,90
599618153313658624,121
599618153321345792,128
599618153329032960,121
599618153336720128,128
599618153344407296,119
599618153352094464,90
599618153359781760,83
599618153367468928,93
599618153375156096,95
599618153382843264,90
599618153390530432,90
599618153398217728,90
599618153405904896,93
599618153413592064,93
599618153421279232,71
599618153428966400,-16
599618153436653568,-150
599618153444340864,-69
599618153452028032,432
599618153459715200,1074
599618153467402368,1134
599618153475089536,353
599618153482776832,-336
599618153490464000,-255
599618153498151168,-33
599618153505838336,-21
599618153513525504,40
599618153521212800,90
599618153528899968,54
599618153536587136,62
599618153544274304,90
599618153551961472,83
599618153559648640,83
599618153567335936,95
599618153575023104,100
599618153582710272,102
599618153590397440,109
599618153598084608,117
599618153605771904,128
599618153613459072,138
599618153621146240,148
599618153628833408,160
599618153636520576,174
599618153644207744,188
599618153651895040,198
599618153659582208,210
599618153667269376,222
599618153674956544,231
599618153682643712,234
599618153690331008,231
599618153698018176,222
599618153705705344,207
599618153713392512,183
599618153721079680,155
599618153728766848,117
599618153736454144,74
599618153744141312,40
599618153751828480,16
599618153759515648,-2
599618153767202816,-14
599618153774890112,-19
599618153782577280,-21
599618153790264448,-26
599618153797951616,-23
599618153805638784,-19
599618153813326080,-14
599618153821013248,-11
599618153828700416,-7
599618153836387584,0
599618153844074866,2
599618153851762048,4
599618153859449216,9
599618153867136256,9
599618153874823424,11
599618153882510592,16
599618153890197632,21
599618153897884800,26
599618153905571840,28
599618153913259008,26
599618153920946176,26
599618153928633216,26
599618153936320384,26
599618153944007552,28
599618153951694592,31
599618153959381760,26
599618153967068928,23
599618153974755968,26
599618153982443136,26
599618153990130304,28
599618153997817344,28
599618154005504512,26
599618154013191552,23
599618154020878720,26
599618154028565888,28
599618154036252928,28
599618154043940096,28
599618154051627264,31
599618154059314304,28
599618154067001472,31
599618154074688640,33
599618154082375680,31
599618154090062848,31
599618154097749888,31
599618154105437056,31
599618154113124224,31
599618154120811264,31
599618154128498432,33
599618154136185600,35
599618154143872640,35
599618154151559808,31
599618154159246976,23
599618154166934016,21
599618154174621184,14
599618154182308352,7
599618154189995392,26
599618154197682560,54
599618154205369600,62
599618154213056768,64
599618154220743936,71
599618154228430976,54
599618154236118144,33
599618154243805312,35
599618154251492352,38
599618154259179520,35
599618154266866688,35
599618154274553728,35
599618154282240896,35
599618154289927936,35
599618154297615104,33
599618154305302272,-16
599618154312989312,-148
599618154320676480,-214
599618154328363648,71
599618154336050688,721
599618154343737856,1206
599618154351425024,867
599618154359112064,11
599618154366799232,-332
599618154374486272,-143
599618154382173440,-45
599618154389860608,-40
599618154397547648,4
599618154405234763,7
599618154412921984,-4
599618154420609152,14
599618154428296192,23
599618154435983360,21
599618154443670528,28
599618154451357568,35
599618154459044736,40
599618154466731776,42
599618154474418944,50
599618154482106112,54
599618154489793152,64
599618154497480320,71
599618154505167488,81
599618154512854528,90
599618154520541696,102
599618154528228864,117
599618154535915904,128
599618154543603072,140
599618154551290240,152
599618154558977280,160
599618154566664448,162
599618154574351488,162
599618154582038656,155
599618154589725824,140
599618154597412864,117
599618154605100032,85
599618154612787200,47
599618154620474240,14
599618154628161408,-11
599618154635848576,-31
599618154643535616,-42
599618154651222784,-50
599618154658909824,-54
599618154666596992,-54
599618154674284160,-50
599618154681971200,-50
599618154689658368,-47
599618154697345536,-42
599618154705032576,-38
599618154712719744,-35
599618154720406912,-33
599618154728093952,-26
599618154735781120,-21
599618154743468288,-19
599618154751155328,-14
599618154758842496,-9
599618154766529536,-4
599618154774216704,-2
599618154781903872,11
599618154789590912,23
599618154797278080,14
599618154804965248,2
599618154812652288,9
599618154820339456,11
599618154828026624,7
599618154835713664,7
599618154843400832,7
599618154851087872,4
599618154858775040,7
599618154866462208,9
599618154874149248,7
599618154881836416,7
599618154889523584,11
599618154897210624,14
599618154904897792,9
599618154912584960,7
599618154920272000,9
599618154927959168,11
599618154935646208,9
599618154943333376,11
599618154951020544,11
599618154958707584,11
599618154966394660,11
599618154974081792,14
599618154981768960,14
599618154989456000,14
599618154997143168,16
599618155004830336,19
599618155012517376,19
599618155020204544,19
599618155027891584,21
599618155035578752,21
599618155043265920,21
599618155050952960,19
599618155058640128,19
599618155066327296,19
599618155074014336,14
599618155081701504,7
599618155089388672,-2
599618155097075712,-2
599618155104762880,19
599618155112450048,45
599618155120137088,54
599618155127824256,62
599618155135511296,62
599618155143198464,42
599618155150885632,23
599618155158572672,26
599618155166259840,31
599618155173947008,26
599618155181634048,26
599618155189321216,28
599618155197008384,31
599618155204695424,31
599618155212382592,26
599618155220069632,-28
599618155227756800,-160
599618155235443968,-203
599618155243131008,119
599618155250818176,766
599618155258505344,1194
599618155266192384,809
599618155273879552,-9
599618155281566720,-300
599618155289253760,-128
599618155296940928,-52
599618155304628096,-45
599618155312315136,-7
599618155320002304,-4
599618155327689344,-9
599618155335376512,7
599618155343063680,16
599618155350750720,16
599618155358437888,26
599618155366125056,35
599618155373812096,38
599618155381499264,40
599618155389186432,47
599618155396873472,57
599618155404560640,69
599618155412247680,81
599618155419934848,88
599618155427622016,97
599618155435309056,109
599618155442996224,126
599618155450683392,145
599618155458370432,160
599618155466057600,169
599618155473744768,176
599618155481431808,179
599618155489118976,176
599618155496806016,169
599618155504493184,155
599618155512180352,131
599618155519867392,100
599618155527554557,59
599618155535241728,19
599618155542928896,-7
599618155550615936,-23
599618155558303104,-35
599618155565990272,-50
599618155573677312,-54
599618155581364480,-54
599618155589051520,-54
599618155596738688,-50
599618155604425856,-47
599618155612112896,-45
599618155619800064,-40
599618155627487232,-33
599618155635174272,-31
599618155642861440,-31
599618155650548608,-26
599618155658235648,-19
599618155665922816,-14
599618155673609984,-9
599618155681297024,-2
599618155688984192,4
599618155696671232,7
599618155704358400,9
599618155712045568,11
599618155719732608,14
599618155727419776,14
599618155735106944,16
599618155742793984,16
599618155750481152,14
599618155758168320,16
599618155765855360,19
599618155773542528,23
599618155781229568,21
599618155788916736,19
599618155796603904,14
599618155804290944,14
599618155811978112,19
599618155819665280,21
599618155827352320,16
599618155835039488,14
599618155842726656,19
599618155850413696,23
599618155858100864,23
599618155865788032,23
599618155873475072,26
599618155881162240,26
599618155888849280,23
599618155896536448,26
599618155904223616,31
599618155911910656,31
599618155919597824,28
599618155927284992,31
599618155934972032,35
599618155942659200,35
599618155950346368,47
599618155958033408,57
599618155965720576,35
599618155973407616,11
599618155981094784,14
599618155988781952,26
599618155996468992,45
599618156004156160,62
599618156011843328,69
599618156019530368,66
599618156027217536,47
599618156034904704,33
599618156042591744,31
599618156050278912,35
599618156057965952,35
599618156065653120,35
599618156073340288,38
599618156081027328,38
599618156088714454,38
599618156096401664,33
599618156104088832,-2
599618156111775872,-121
599618156119463040,-207
599618156127150208,33
599618156134837248,647
599618156142524416,1148
599618156150211456,869
599618156157898624,-4
599618156165585792,-410
599618156173272832,-198
599618156180960000,-69
599618156188647168,-57
599618156196334208,14
599618156204021376,23
599618156211708544,-2
599618156219395584,19
599618156227082752,35
599618156234769920,31
599618156242456960,38
599618156250144128,50
599618156257831168,52
599618156265518336,57
599618156273205504,64
599618156280892544,71
599618156288579712,81
599618156296266880,93
599618156303953920,105
599618156311641088,114
599618156319328256,124
599618156327015296,143
599618156334702464,157
599618156342389504,169
599618156350076672,181
599618156357763840,193
599618156365450880,193
599618156373138048,188
599618156380825216,179
599618156388512256,164
599618156396199424,140
599618156403886592,107
599618156411573632,66
599618156419260800,28
599618156426947968,-7
599618156434635008,-31
599618156442322176,-42
599618156450009216,-52
599618156457696384,-59
599618156465383552,-59
599618156473070592,-57
599618156480757760,-57
599618156488444928,-54
599618156496131968,-52
599618156503819136,-47
599618156511506304,-42
599618156519193344,-40
599618156526880512,-35
599618156534567552,-28
599618156542254720,-23
599618156549941888,-19
599618156557628928,-14
599618156565316096,-11
599618156573003264,-9
599618156580690304,-4
599618156588377472,-2
599618156596064640,0
599618156603751680,0
599618156611438848,2
599618156619125888,2
599618156626813056,0
599618156634500224,-2
599618156642187264,-2
599618156649874351,-4
599618156657561472,-4
599618156665248640,-2
599618156672935680,-2
599618156680622848,-4
599618156688310016,-7
599618156695997056,-4
599618156703684224,0
599618156711371264,0
599618156719058432,-2
599618156726745600,0
599618156734432640,2
599618156742119808,2
599618156749806976,2
599618156757494016,4
599618156765181184,7
599618156772868352,4
599618156780555392,2
599618156788242560,4
599618156795929728,4
599618156803616768,7
599618156811303936,4
599618156818990976,0
599618156826678144,-2
599618156834365312,-11
599618156842052352,-21
599618156849739520,-9
599618156857426688,21
599618156865113728,35
599618156872800896,40
599618156880488064,47
599618156888175104,33
599618156895862272,9
599618156903549312,7
599618156911236480,14
599618156918923648,11
599618156926610688,7
599618156934297856,9
599618156941985024,11
599618156949672064,11
599618156957359232,11
599618156965046400,-19
599618156972733440,-126
599618156980420608,-238
599618156988107776,-69
599618156995794816,508
599618157003481984,1101
599618157011169024,991
599618157018856192,162
599618157026543360,-374
599618157034230400,-243
599618157041917568,-85
599618157049604736,-74
599618157057291776,-26
599618157064978944,-7
599618157072666112,-26
599618157080353152,-14
599618157088040320,4
599618157095727360,0
599618157103414528,4
599618157111101696,16
599618157118788736,21
599618157126475904,23
599618157134163072,33
599618157141850112,40
599618157149537280,47
599618157157224448,57
599618157164911488,66
599618157172598656,78
599618157180285696,88
599618157187972864,102
599618157195660032,117
599618157203347072,128
599618157211034248,140
599618157218721408,152
599618157226408576,157
599618157234095616,155
599618157241782784,148
599618157249469952,133
599618157257156992,112
599618157264844160,78
599618157272531200,40
599618157280218368,0
599618157287905536,-31
599618157295592576,-52
599618157303279744,-66
599618157310966912,-76
599618157318653952,-81
599618157326341120,-81
599618157334028288,-81
599618157341715328,-78
599618157349402496,-76
599618157357089664,-71
599618157364776704,-66
599618157372463872,-64
599618157380150912,-62
599618157387838080,-57
599618157395525248,-50
599618157403212288,-45
599618157410899456,-40
599618157418586624,-35
599618157426273664,-28
599618157433960832,-26
599618157441648000,-21
599618157449335040,-19
599618157457022208,-16
599618157464709248,-14
599618157472396416,-11
599618157480083584,-11
599618157487770624,-14
599618157495457792,-11
599618157503144960,-11
599618157510832000,-14
599618157518519168,-14
599618157526206336,-11
599618157533893376,-9
599618157541580544,-9
599618157549267712,-4
599618157556954752,-4
599618157564641920,-4
599618157572328960,-2
599618157580016128,-2
599618157587703296,-2
599618157595390336,0
599618157603077504,0
599618157610764672,0
599618157618451712,2
599618157626138880,2
599618157633826048,4
599618157641513088,4
599618157649200256,7
599618157656887296,7
599618157664574464,7
599618157672261632,9
599618157679948672,9
599618157687635840,9
599618157695323008,11
599618157703010048,11
599618157710697216,11
599618157718384384,19
599618157726071424,38
599618157733758592,42
599618157741445760,28
599618157749132800,11
599618157756819968,11
599618157764507008,35
599618157772194149,69
599618157779881344,85
599618157787568512,83
599618157795255552,100
599618157802942720,124
599618157810629888,102
599618157818316928,57
599618157826004096,42
599618157833691136,38
599618157841378304,19
599618157849065472,14
599618157856752512,19
599618157864439680,14
599618157872126848,-9
599618157879813888,-105
599618157887501056,-231
599618157895188224,-131
599618157902875264,377
599618157910562432,1012
599618157918249600,1091
599618157925936640,391
599618157933623808,-248
599618157941310848,-246
599618157948998016,-90
599618157956685184,-71
599618157964372224,-38
599618157972059392,-16
599618157979746560,-31
599618157987433600,-23
599618157995120768,-7
599618158002807936,-4
599618158010494976,0
599618158018182144,7
599618158025869184,14
599618158033556352,19
599618158041243520,23
599618158048930560,31
599618158056617728,40
599618158064304896,50
599618158071991936,59
599618158079679104,71
599618158087366272,83
599618158095053312,97
599618158102740480,112
599618158110427648,128
599618158118114688,143
599618158125801856,150
599618158133488896,155
599618158141176064,157
599618158148863232,155
599618158156550272,145
599618158164237440,131
599618158171924608,102
599618158179611648,64
599618158187298816,31
599618158194985984,0
599618158202673024,-31
599618158210360192,-47
599618158218047232,-57
599618158225734400,-66
599618158233421568,-69
599618158241108608,-66
599618158248795776,-62
599618158256482944,-59
599618158264169984,-54
599618158271857152,-52
599618158279544320,-47
599618158287231360,-40
599618158294918528,-33
599618158302605568,-28
599618158310292736,-26
599618158317979904,-26
599618158325666944,-21
599618158333354046,-16
599618158341041280,-9
599618158348728576,-4
599618158356416000,-2
599618158364103296,-2
599618158371790592,4
599618158379477888,9
599618158387165312,4
599618158394852608,4
599618158402539904,7
599618158410227200,4
599618158417914624,2
599618158425601920,4
599618158433289216,9
599618158440976640,11
599618158448663936,9
599618158456351232,9
599618158464038528,14
599618158471725952,11
599618158479413248,9
599618158487100544,9
599618158494787840,11
599618158502475264,11
599618158510162560,11
599618158517849856,9
599618158525537280,11
599618158533224576,14
599618158540911872,14
599618158548599168,11
599618158556286592,14
599618158563973888,16
599618158571661184,16
599618158579348480,14
599618158587035904,14
599618158594723200,16
599618158602410496,16
599618158610097920,16
599618158617785216,14
599618158625472512,14
599618158633159808,16
599618158640847232,16
599618158648534528,11
599618158656221824,4
599618158663909120,-4
599618158671596544,0
599618158679283840,21
599618158686971136,40
599618158694658560,50
599618158702345856,54
599618158710033152,42
599618158717720448,19
599618158725407872,9
599618158733095168,16
599618158740782464,19
599618158748469760,19
599618158756157184,19
599618158763844480,19
599618158771531776,19
599618158779219200,16
599618158786906496,0
599618158794593792,-88
599618158802281088,-217
599618158809968512,-128
599618158817655808,370
599618158825343104,1010
599618158833030400,1089
599618158840717824,332
599618158848405120,-360
599618158856092416,-308
599618158863779840,-97
599618158871467136,-81
599618158879154432,-26
599618158886841728,11
599618158894529204,-16
599618158902216320,-9
599618158909903488,16
599618158917590656,14
599618158925277952,14
599618158932965120,28
599618158940652288,31
599618158948339456,31
599618158956026624,42
599618158963713792,50
599618158971401088,54
599618158979088256,64
599618158986775424,74
599618158994462592,83
599618159002149760,97
599618159009837056,112
599618159017524224,124
599618159025211392,138
599618159032898560,152
599618159040585728,164
599618159048272896,167
599618159055960192,164
599618159063647360,162
599618159071334528,148
599618159079021696,126
599618159086708864,100
599618159094396160,66
599618159102083328,28
599618159109770496,-9
599618159117457664,-35
599618159125144832,-52
599618159132832128,-66
599618159140519296,-74
599618159148206464,-76
599618159155893632,-78
599618159163580800,-76
599618159171267968,-74
599618159178955264,-71
599618159186642432,-66
599618159194329600,-59
599618159202016768,-54
599618159209703936,-52
599618159217391232,-50
599618159225078400,-47
599618159232765568,-42
599618159240452736,-35
599618159248139904,-31
599618159255827072,-28
599618159263514368,-26
599618159271201536,-23
599618159278888704,-19
599618159286575872,-16
599618159294263040,-16
599618159301950336,-16
599618159309637504,-14
599618159317324672,-14
599618159325011840,-16
599618159332699008,-19
599618159340386176,-16
599618159348073472,-11
599618159355760640,-11
599618159363447808,-11
599618159371134976,-11
599618159378822144,-9
599618159386509440,-9
599618159394196608,-9
599618159401883776,-7
599618159409570944,-7
599618159417258112,-4
599618159424945408,-4
599618159432632576,-4
599618159440319744,-4
599618159448006912,-4
599618159455694188,-7
599618159463381504,-4
599618159471068800,-4
599618159478755968,-4
599618159486443264,-4
599618159494130560,-2
599618159501817856,0
599618159509505024,2
599618159517192320,2
599618159524879616,2
599618159532566912,2
599618159540254080,2
599618159547941376,-2
599618159555628672,-7
599618159563315840,-19
599618159571003136,-23
599618159578690432,-4
599618159586377728,23
599618159594064896,38
599618159601752192,45
599618159609439488,45
599618159617126784,26
599618159624813952,7
599618159632501248,7
599618159640188544,14
599618159647875712,11
599618159655563008,11
599618159663250304,14
599618159670937600,14
599618159678624768,16
599618159686312064,11
599618159693999360,-33
599618159701686656,-162
599618159709373824,-226
599618159717061120,57
599618159724748416,692
599618159732435584,1163
599618159740122880,831
599618159747810176,-2
599618159755497472,-341
599618159763184640,-171
599618159770871936,-76
599618159778559232,-59
599618159786246528,-14
599618159793933696,-14
599618159801620992,-23
599618159809308288,-4
599618159816995456,4
599618159824682752,2
599618159832370048,11
599618159840057344,16
599618159847744512,19
599618159855431808,23
599618159863119104,33
599618159870806400,40
599618159878493568,47
599618159886180864,54
599618159893868160,64
599618159901555328,78
599618159909242624,90
599618159916929920,102
599618159924617216,119
599618159932304384,131
599618159939991680,145
599618159947678976,155
599618159955366272,160
599618159963053440,157
599618159970740736,150
599618159978428032,136
599618159986115328,114
599618159993802496,83
599618160001489792,42
599618160009177088,4
599618160016864255,-21
599618160024551424,-42
599618160032238592,-57
599618160039925632,-66
599618160047612800,-71
599618160055299968,-74
599618160062987008,-74
599618160070674176,-71
599618160078361216,-66
599618160086048384,-64
599618160093735552,-59
599618160101422592,-54
599618160109109760,-52
599618160116796928,-47
599618160124483968,-40
599618160132171136,-38
599618160139858304,-35
599618160147545344,-28
599618160155232512,-23
599618160162919680,-21
599618160170606720,-19
599618160178293888,-16
599618160185980928,-14
599618160193668096,-11
599618160201355264,-9
599618160209042304,-11
599618160216729472,-11
599618160224416640,-11
599618160232103680,-9
599618160239790848,-11
599618160247478016,-11
599618160255165056,-9
599618160262852224,-9
599618160270539264,-9
599618160278226432,-9
599618160285913600,-7
599618160293600640,-7
599618160301287808,-7
599618160308974976,-4
599618160316662016,-4
599618160324349184,-4
599618160332036352,-4
599618160339723392,-2
599618160347410560,-4
599618160355097728,-4
599618160362784768,-2
599618160370471936,-2
599618160378158976,0
599618160385846144,0
599618160393533312,2
599618160401220352,0
599618160408907520,2
599618160416594688,2
599618160424281728,2
599618160431968896,4
599618160439656064,4
599618160447343104,2
599618160455030272,2
599618160462717312,0
599618160470404480,-9
599618160478091648,-19
599618160485778688,-9
599618160493465856,19
599618160501153024,35
599618160508840064,40
599618160516527232,45
599618160524214400,35
599618160531901440,9
599618160539588608,2
599618160547275648,11
599618160554962816,11
599618160562649984,7
599618160570337024,11
599618160578024152,11
599618160585711360,11
599618160593398528,11
599618160601085696,-7
599618160608772992,-102
599618160616460160,-226
599618160624147328,-124
599618160631834496,384
599618160639521664,1007
599618160647208832,1067
599618160654896128,353
599618160662583296,-284
599618160670270464,-267
599618160677957632,-97
599618160685644800,-74
599618160693332096,-35
599618160701019264,-11
599618160708706432,-26
599618160716393600,-19
599618160724080768,2
599618160731768064,2
599618160739455232,2
599618160747142400,14
599618160754829568,21
599618160762516736,23
599618160770203904,31
599618160777891200,38
599618160785578368,45
599618160793265536,54
599618160800952704,66
599618160808639872,76
599618160816327168,88
599618160824014336,100
599618160831701504,112
599618160839388672,126
599618160847075840,138
599618160854763008,148
599618160862450304,155
599618160870137472,157
599618160877824640,152
599618160885511808,143
599618160893198976,124
599618160900886272,97
599618160908573440,64
599618160916260608,23
599618160923947776,-9
599618160931634944,-33
599618160939322112,-50
599618160947009408,-62
599618160954696576,-69
599618160962383744,-74
599618160970070912,-74
599618160977758080,-71
599618160985445376,-69
599618160993132544,-66
599618161000819712,-62
599618161008506880,-57
599618161016194048,-52
599618161023881344,-50
599618161031568512,-45
599618161039255680,-42
599618161046942848,-35
599618161054630016,-31
599618161062317184,-28
599618161070004480,-26
599618161077691648,-23
599618161085378816,-19
599618161093065984,-16
599618161100753152,-14
599618161108440448,-14
599618161116127616,-11
599618161123814784,-11
599618161131501952,-11
599618161139189140,-11
599618161146876288,-9
599618161154563456,-9
599618161162250624,-11
599618161169937920,-11
599618161177625088,-9
599618161185312256,-9
599618161192999424,-7
599618161200686592,-7
599618161208373760,-7
599618161216061056,-4
599618161223748224,-4
599618161231435392,-2
599618161239122560,0
599618161246809728,0
599618161254497024,0
599618161262184192,0
599618161269871360,0
599618161277558528,2
599618161285245696,2
599618161292932864,2
599618161300620160,0
599618161308307328,-2
599618161315994496,-4
599618161323681664,-14
599618161331368832,-21
599618161339056128,-11
599618161346743296,19
599618161354430464,35
599618161362117632,40
599618161369804800,42
599618161377492096,31
599618161385179264,9
599618161392866432,2
599618161400553600,9
599618161408240768,7
599618161415927936,7
599618161423615232,11
599618161431302400,11
599618161438989568,11
599618161446676736,11
599618161454363904,-7
599618161462051200,-105
599618161469738368,-226
599618161477425536,-112
599618161485112704,408
599618161492799872,1017
599618161500487040,1031
599618161508174336,293
599618161515861504,-310
599618161523548672,-262
599618161531235840,-97
599618161538923008,-71
599618161546610304,-28
599618161554297472,-7
599618161561984640,-23
599618161569671808,-9
599618161577358976,7
599618161585046144,7
599618161592733440,9
599618161600420608,19
599618161608107776,26
599618161615794944,31
599618161623482112,38
599618161631169408,42
599618161638856576,50
599618161646543744,62
599618161654230912,74
599618161661918080,83
599618161669605376,93
599618161677292544,109
599618161684979712,124
599618161692666880,138
599618161700354124,152
599618161708041344,164
599618161715728512,171
599618161723415680,174
599618161731102976,171
599618161738790144,160
599618161746477312,133
599618161754164480,105
599618161761851648,69
599618161769538816,28
599618161777226112,-9
599618161784913280,-33
599618161792600448,-50
599618161800287616,-64
599618161807974784,-74
599618161815662080,-71
599618161823349248,-66
599618161831036416,-66
599618161838723584,-66
599618161846410752,-62
599618161854097920,-59
599618161861785216,-59
599618161869472384,-54
599618161877159552,-50
599618161884846720,-47
599618161892533888,-42
599618161900221184,-38
599618161907908352,-33
599618161915595520,-23
599618161923282688,-21
599618161930969856,-19
599618161938657152,-11
599618161946344320,-11
599618161954031488,-11
599618161961718656,-9
599618161969405824,-4
599618161977092992,-7
599618161984780288,-7
599618161992467456,-7
599618162000154624,-7
599618162007841792,-9
599618162015528960,-7
599618162023216256,-4
599618162030903424,-7
599618162038590592,-7
599618162046277760,-4
599618162053964928,-4
599618162061652096,-4
599618162069339392,-4
599618162077026560,-7
599618162084713728,-4
599618162092400896,-2
599618162100088064,0
599618162107775360,0
599618162115462528,0
599618162123149696,2
599618162130836864,0
599618162138524032,0
599618162146211200,-2
599618162153898496,-14
599618162161585664,-21
599618162169272832,-9
599618162176960000,21
599618162184647168,33
599618162192334464,35
599618162200021632,38
599618162207708800,28
599618162215395968,9
599618162223083136,4
599618162230770432,9
599618162238457600,7
599618162246144768,4
599618162253831936,7
599618162261519108,7
599618162269206272,9
599618162276893440,14
599618162284580608,-9
599618162292267904,-117
599618162299955072,-236
599618162307642240,-85
599618162315329408,470
599618162323016576,1050
599618162330703744,948
599618162338391040,102
599618162346078208,-456
599618162353765376,-303
599618162361452544,-117
599618162369139712,-93
599618162376827008,-16
599618162384514176,9
599618162392201344,-23
599618162399888512,-7
599618162407575680,16
599618162415262848,14
599618162422950144,16
599618162430637312,28
599618162438324480,31
599618162446011648,33
599618162453698816,45
599618162461386112,54
599618162469073280,62
599618162476760448,74
599618162484447616,85
599618162492134784,97
599618162499822080,114
599618162507509248,131
599618162515196416,145
599618162522883584,157
599618162530570752,171
599618162538257920,183
599618162545945216,186
599618162553632384,188
599618162561319552,183
599618162569006720,169
599618162576693888,143
599618162584381184,109
599618162592068352,66
599618162599755520,21
599618162607442688,-19
599618162615129856,-47
599618162622817024,-71
599618162630504320,-83
599618162638191488,-85
599618162645878656,-85
599618162653565824,-83
599618162661252992,-81
599618162668940288,-78
599618162676627456,-78
599618162684314624,-74
599618162692001792,-66
599618162699688960,-59
599618162707376128,-57
599618162715063424,-54
599618162722750592,-45
599618162730437760,-40
599618162738124928,-38
599618162745812096,-33
599618162753499392,-26
599618162761186560,-23
599618162768873728,-21
599618162776560896,-19
599618162784248064,-19
599618162791935360,-16
599618162799622528,-14
599618162807309696,-16
599618162814996864,-21
599618162822684092,-19
599618162830371200,-16
599618162838058368,-21
599618162845745536,-21
599618162853432832,-19
599618162861120000,-19
599618162868807168,-16
599618162876494336,-14
599618162884181504,-14
599618162891868672,-14
599618162899555968,-9
599618162907243136,-14
599618162914930304,-16
599618162922617472,-11
599618162930304640,-14
599618162937991936,-21
599618162945679104,-28
599618162953366272,-28
599618162961053440,-16
599618162968740608,2
599618162976427776,14
599618162984115072,19
599618162991802240,26
599618162999489408,14
599618163007176576,-7
599618163014863744,-9
599618163022551040,0
599618163030238208,-2
599618163037925376,-7
599618163045612544,-4
599618163053299712,-4
599618163060987008,-2
599618163068674176,0
599618163076361344,-14
599618163084048512,-107
599618163091735680,-246
599618163099422848,-164
599618163107110144,351
599618163114797312,1005
599618163122484480,1024
599618163130171648,188
599618163137858816,-470
599618163145546112,-341
599618163153233280,-128
599618163160920448,-117
599618163168607616,-14
599618163176294784,50
599618163183981952,-2
599618163191669248,-2
599618163199356416,42
599618163207043584,45
599618163214730752,33
599618163222417920,33
599618163230105216,33
599618163237792384,33
599618163245479552,40
599618163253166720,47
599618163260853888,57
599618163268541056,62
599618163276228352,69
599618163283915520,85
599618163291602688,107
599618163299289856,119
599618163306977024,131
599618163314664320,150
599618163322351488,167
599618163330038656,179
599618163337725824,186
599618163345412992,186
599618163353100288,179
599618163360787456,167
599618163368474624,140
599618163376161792,100
599618163383849076,52
599618163391536256,4
599618163399223424,-35
599618163406910592,-66
599618163414597888,-88
599618163422285056,-102
599618163429972224,-109
599618163437659392,-112
599618163445346560,-109
599618163453033728,-105
599618163460721024,-102
599618163468408192,-95
599618163476095360,-88
599618163483782528,-88
599618163491469696,-83
599618163499156992,-76
599618163506844160,-71
599618163514531328,-69
599618163522218496,-62
599618163529905664,-54
599618163537592832,-50
599618163545280128,-45
599618163552967296,-40
599618163560654464,-38
599618163568341632,-35
599618163576028800,-31
599618163583716096,-33
599618163591403264,-35
599618163599090432,-33
599618163606777600,-26
599618163614464768,-28
599618163622152064,-33
599618163629839232,-31
599618163637526400,-28
599618163645213568,-28
599618163652900736,-28
599618163660587904,-26
599618163668275200,-26
599618163675962368,-28
599618163683649536,-28
599618163691336704,-28
599618163699023872,-33
599618163706711168,-38
599618163714398336,-42
599618163722085504,-40
599618163729772672,-19
599618163737459840,-2
599618163745147008,7
599618163752834304,21
599618163760521472,11
599618163768208640,-9
599618163775895808,-14
599618163783582976,-9
599618163791270272,-9
599618163798957440,-9
599618163806644608,-7
599618163814331776,-7
599618163822018944,-9
599618163829706112,-4
599618163837393408,-7
599618163845080576,-71
599618163852767744,-212
599618163860454912,-241
599618163868142080,117
599618163875829376,773
599618163883516544,1098
599618163891203712,544
599618163898890880,-281
599618163906578048,-408
599618163914265344,-162
599618163921952512,-112
599618163929639680,-62
599618163937326848,11
599618163945014060,-11
599618163952701184,-23
599618163960388352,4
599618163968075392,9
599618163975762560,9
599618163983449728,21
599618163991136768,28
599618163998823936,31
599618164006510976,38
599618164014198144,45
599618164021885312,52
599618164029572352,62
599618164037259520,74
599618164044946688,88
599618164052633728,105
599618164060320896,117
599618164068008064,128
599618164075695104,152
599618164083382272,171
599618164091069440,188
599618164098756480,198
599618164106443648,205
599618164114130688,203
599618164121817856,186
599618164129505024,164
599618164137192064,131
599618164144879232,81
599618164152566400,31
599618164160253440,-7
599618164167940608,-42
599618164175627776,-74
599618164183314816,-88
599618164191001984,-88
599618164198689024,-88
599618164206376192,-90
599618164214063360,-90
599618164221750400,-90
599618164229437568,-85
599618164237124736,-78
599618164244811776,-76
599618164252498944,-74
599618164260186112,-71
599618164267873152,-64
599618164275560320,-57
599618164283247488,-50
599618164290934528,-45
599618164298621696,-35
599618164306308736,-28
599618164313995904,-33
599618164321683072,-31
599618164329370112,-23
599618164337057280,-19
599618164344744448,-14
599618164352431488,-14
599618164360118656,-19
599618164367805824,-16
599618164375492864,-9
599618164383180032,-16
599618164390867072,-26
599618164398554240,-19
599618164406241408,-9
599618164413928448,-11
599618164421615616,-16
599618164429302784,-14
599618164436989824,-11
599618164444676992,-11
599618164452364160,-11
599618164460051200,-23
599618164467738368,-33
599618164475425408,-31
599618164483112576,-23
599618164490799744,-9
599618164498486784,11
599618164506173957,23
599618164513861120,31
599618164521548288,21
599618164529235328,2
599618164536922496,-2
599618164544609664,0
599618164552296704,-2
599618164559983872,-4
599618164567670912,2
599618164575358080,7
599618164583045248,2
599618164590732288,2
599618164598419456,4
599618164606106624,-45
599618164613793664,-181
599618164621480832,-248
599618164629168000,31
599618164636855040,649
599618164644542208,1067
599618164652229376,675
599618164659916416,-131
599618164667603584,-384
599618164675290624,-176
599618164682977792,-90
599618164690664960,-64
599618164698352000,-2
599618164706039168,-9
599618164713726336,-26
599618164721413376,-2
599618164729100544,7
599618164736787712,4
599618164744474752,14
599618164752161920,21
599618164759848960,23
599618164767536128,31
599618164775223296,35
599618164782910336,40
599618164790597504,54
599618164798284672,69
599618164805971712,81
599618164813658880,95
599618164821346048,105
599618164829033088,119
599618164836720256,152
599618164844407424,217
599618164852094464,260
599618164859781632,222
599618164867468672,181
599618164875155840,198
599618164882843008,198
599618164890530048,164
599618164898217216,131
599618164905904384,88
599618164913591424,31
599618164921278592,-16
599618164928965760,-45
599618164936652800,-69
599618164944339968,-90
599618164952027008,-100
599618164959714176,-97
599618164967401344,-93
599618164975088384,-90
599618164982775552,-85
599618164990462720,-81
599618164998149760,-81
599618165005836928,-76
599618165013524096,-69
599618165021211136,-66
599618165028898304,-64
599618165036585344,-57
599618165044272512,-52
599618165051959680,-52
599618165059646720,-45
599618165067333854,-38
599618165075021056,-31
599618165082708224,-26
599618165090395264,-23
599618165098082432,-23
599618165105769600,-23
599618165113456640,-19
599618165121143808,-19
599618165128830848,-21
599618165136518016,-11
599618165144205184,-4
599618165151892224,-16
599618165159579392,-26
599618165167266560,-19
599618165174953600,-7
599618165182640768,-11
599618165190327936,-11
599618165198014976,-7
599618165205702144,-14
599618165213389312,-11
599618165221076352,4
599618165228763520,-2
599618165236450560,-16
599618165244137728,-9
599618165251824896,0
599618165259511936,-2
599618165267199104,0
599618165274886272,0
599618165282573312,-4
599618165290260480,-7
599618165297947648,-4
599618165305634688,-9
599618165313321856,-21
599618165321008896,-23
599618165328696064,-7
599618165336383232,21
599618165344070272,33
599618165351757440,35
599618165359444608,28
599618165367131648,16
599618165374818816,7
599618165382505984,9
599618165390193024,11
599618165397880192,4
599618165405567360,0
599618165413254400,4
599618165420941568,7
599618165428628608,7
599618165436315776,9
599618165444002944,4
599618165451689984,-59
599618165459377152,-200
599618165467064320,-226
599618165474751360,128
599618165482438528,769
599618165490125696,1053
599618165497812736,520
599618165505499904,-214
599618165513186944,-332
599618165520874112,-128
599618165528561280,-76
599618165536248320,-42
599618165543935488,-2
599618165551622656,-21
599618165559309696,-23
599618165566996864,7
599618165574684032,11
599618165582371072,2
599618165590058240,16
599618165597745280,26
599618165605432448,26
599618165613119616,31
599618165620806656,40
599618165628493751,42
599618165636180864,47
599618165643868032,64
599618165651555072,78
599618165659242240,88
599618165666929408,107
599618165674616448,117
599618165682303616,126
599618165689990656,152
599618165697677824,174
599618165705364992,176
599618165713052032,183
599618165720739200,183
599618165728426368,176
599618165736113408,174
599618165743800576,150
599618165751487744,85
599618165759174784,23
599618165766861952,-11
599618165774549120,-45
599618165782236160,-69
599618165789923328,-81
599618165797610368,-76
599618165805297536,-71
599618165812984704,-85
599618165820671744,-97
599618165828358912,-90
599618165836046080,-85
599618165843733120,-85
599618165851420288,-74
599618165859107456,-54
599618165866794496,-54
599618165874481664,-71
599618165882168704,-74
599618165889855872,-59
599618165897543040,-54
599618165905230080,-54
599618165912917248,-47
599618165920604416,-42
599618165928291456,-45
599618165935978624,-38
599618165943665792,-28
599618165951352832,-28
599618165959040000,-33
599618165966727168,-35
599618165974414208,-28
599618165982101376,-23
599618165989788416,-31
599618165997475584,-31
599618166005162752,-19
599618166012849792,-21
599618166020536960,-23
599618166028224128,-21
599618166035911168,-21
599618166043598336,-16
599618166051285504,-11
599618166058972544,-21
599618166066659712,-21
599618166074346752,-9
599618166082033920,-9
599618166089721088,-16
599618166097408128,-16
599618166105095296,-14
599618166112782464,-11
599618166120469504,-9
599618166128156672,-9
599618166135843840,-7
599618166143530880,-9
599618166151218048,-7
599618166158905088,-9
599618166166592256,-11
599618166174279424,-4
599618166181966464,-4
599618166189653648,-7
599618166197340800,-7
599618166205027968,-11
599618166212715008,-21
599618166220402176,-23
599618166228089344,-23
599618166235776384,-4
599618166243463552,19
599618166251150592,26
599618166258837760,26
599618166266524928,21
599618166274211968,11
599618166281899136,4
599618166289586304,0
599618166297273344,4
599618166304960512,14
599618166312647680,7
599618166320334720,-2
599618166328021888,11
599618166335709056,11
599618166343396096,4
599618166351083264,-16
599618166358770304,-124
599618166366457472,-248
599618166374144640,-102
599618166381831680,432
599618166389518848,953
599618166397206016,828
599618166404893056,107
599618166412580224,-332
599618166420267392,-207
599618166427954432,-74
599618166435641600,-64
599618166443328640,-16
599618166451015808,2
599618166458702976,-16
599618166466390016,-9
599618166474077184,9
599618166481764352,11
599618166489451392,7
599618166497138560,9
599618166504825728,28
599618166512512768,35
599618166520199936,33
599618166527887104,35
599618166535574144,42
599618166543261312,52
599618166550948352,69
599618166558635520,83
599618166566322688,88
599618166574009728,97
599618166581696896,121
599618166589384064,140
599618166597071104,145
599618166604758272,160
599618166612445440,179
599618166620132480,186
599618166627819648,174
599618166635506688,148
599618166643193856,124
599618166650881024,109
599618166658568064,64
599618166666255232,-4
599618166673942400,-42
599618166681629440,-50
599618166689316608,-71
599618166697003776,-90
599618166704690816,-88
599618166712377984,-85
599618166720065024,-83
599618166727752192,-76
599618166735439360,-88
599618166743126400,-90
599618166750813545,-69
599618166758500736,-69
599618166766187904,-81
599618166773874944,-69
599618166781562112,-57
599618166789249280,-66
599618166796936320,-69
599618166804623488,-54
599618166812310528,-42
599618166819997696,-50
599618166827684864,-57
599618166835371904,-42
599618166843059072,-31
599618166850746240,-40
599618166858433280,-42
599618166866120448,-28
599618166873807616,-21
599618166881494656,-31
599618166889181824,-33
599618166896868992,-23
599618166904556032,-19
599618166912243200,-23
599618166919930240,-21
599618166927617408,-4
599618166935304576,-14
599618166942991616,-31
599618166950678784,-16
599618166958365952,-2
599618166966052992,-11
599618166973740160,-16
599618166981427328,-11
599618166989114368,-11
599618166996801536,-11
599618167004488576,-2
599618167012175744,0
599618167019862912,-7
599618167027549952,-9
599618167035237120,2
599618167042924288,11
599618167050611328,4
599618167058298496,-7
599618167065985664,-7
599618167073672704,4
599618167081359872,4
599618167089047040,-4
599618167096734080,-2
599618167104421248,-7
599618167112108288,-14
599618167119795456,-9
599618167127482624,-7
599618167135169664,-4
599618167142856832,9
599618167150544000,31
599618167158231040,38
599618167165918208,21
599618167173605376,2
599618167181292416,-2
599618167188979584,0
599618167196666624,4
599618167204353792,7
599618167212040960,2
599618167219728000,-2
599618167227415168,-2
599618167235102336,4
599618167242789376,0
599618167250476544,-26
599618167258163712,-124
599618167265850752,-253
599618167273537920,-152
599618167281224960,336
599618167288912128,869
599618167296599296,812
599618167304286336,138
599618167311973442,-315
599618167319660672,-207
599618167327347840,-76
599618167335035008,-78
599618167342722304,-38
599618167350409472,-14
599618167358096640,-33
599618167365783808,-23
599618167373470976,-2
599618167381158144,-9
599618167388845440,-14
599618167396532608,4
599618167404219776,11
599618167411906944,0
599618167419594112,11
599618167427281408,26
599618167434968576,28
599618167442655744,35
599618167450342912,45
599618167458030080,52
599618167465717376,64
599618167473404544,88
599618167481091712,100
599618167488778880,102
599618167496466048,126
599618167504153216,148
599618167511840512,155
599618167519527680,152
599618167527214848,143
599618167534902016,138
599618167542589184,119
599618167550276480,76
599618167557963648,26
599618167565650816,-19
599618167573337984,-52
599618167581025152,-71
599618167588712320,-95
599618167596399616,-105
599618167604086784,-93
599618167611773952,-97
599618167619461120,-107
599618167627148288,-102
599618167634835584,-85
599618167642522752,-81
599618167650209920,-90
599618167657897088,-83
599618167665584256,-69
599618167673271424,-71
599618167680958720,-81
599618167688645888,-74
599618167696333056,-59
599618167704020224,-54
599618167711707392,-59
599618167719394688,-62
599618167727081856,-47
599618167734769024,-38
599618167742456192,-38
599618167750143360,-38
599618167757830656,-38
599618167765517824,-35
599618167773204992,-21
599618167780892160,-23
599618167788579328,-33
599618167796266496,-23
599618167803953792,-9
599618167811640960,-19
599618167819328128,-38
599618167827015296,-14
599618167834702464,14
599618167842389760,-21
599618167850076928,-42
599618167857764096,-2
599618167865451264,0
599618167873138430,-28
599618167880825600,-19
599618167888512768,-4
599618167896199936,-21
599618167903887232,-33
599618167911574400,-14
599618167919261568,-9
599618167926948736,-28
599618167934635904,-26
599618167942323072,-11
599618167950010368,-21
599618167957697536,-28
599618167965384704,-4
599618167973071872,9
599618167980759040,9
599618167988446336,4
599618167996133504,2
599618168003820672,7
599618168011507840,7
599618168019195008,2
599618168026882176,0
599618168034569472,14
599618168042256640,52
599618168049943808,64
599618168057630976,40
599618168065318144,50
599618168073005440,52
599618168080692608,28
599618168088379776,33
599618168096066944,28
599618168103754112,31
599618168111441408,38
599618168119128576,28
599618168126815744,33
599618168134502912,38
599618168142190080,38
599618168149877248,11
599618168157564544,-109
599618168165251712,-217
599618168172938880,-54
599618168180626048,427
599618168188313216,878
599618168196000512,745
599618168203687680,95
599618168211374848,-267
599618168219062016,-145
599618168226749184,-38
599618168234436352,-19
599618168242123648,26
599618168249810816,31
599618168257497984,19
599618168265185152,42
599618168272872320,47
599618168280559616,35
599618168288246784,52
599618168295933952,66
599618168303621120,54
599618168311308288,69
599618168318995456,76
599618168326682752,64
599618168334369920,81
599618168342057088,95
599618168349744256,95
599618168357431424,105
599618168365118720,112
599618168372805888,126
599618168380493056,145
599618168388180224,160
599618168395867392,171
599618168403554688,179
599618168411241856,188
599618168418929024,188
599618168426616192,186
599618168434303414,174
599618168441990528,143
599618168449677696,95
599618168457364864,50
599618168465052160,9
599618168472739328,-21
599618168480426496,-42
599618168488113664,-59
599618168495800832,-69
599618168503488000,-71
599618168511175296,-76
599618168518862464,-71
599618168526549632,-62
599618168534236800,-66
599618168541923968,-69
599618168549611264,-57
599618168557298432,-57
599618168564985600,-64
599618168572672768,-57
599618168580359936,-45
599618168588047104,-52
599618168595734400,-52
599618168603421568,-38
599618168611108736,-38
599618168618795904,-45
599618168626483072,-33
599618168634170368,-21
599618168641857536,-31
599618168649544704,-28
599618168657231872,-19
599618168664919040,-16
599618168672606336,-11
599618168680293504,-14
599618168687980672,-14
599618168695667840,-7
599618168703355008,-9
599618168711042176,-11
599618168718729472,-9
599618168726416640,-11
599618168734103808,-7
599618168741790976,2
599618168749478144,-7
599618168757165440,-19
599618168764852608,-7
599618168772539776,2
599618168780226944,-2
599618168787914112,-9
599618168795601280,0
599618168803288576,11
599618168810975744,4
599618168818662912,-4
599618168826350080,-2
599618168834037248,7
599618168841724544,7
599618168849411712,0
599618168857098880,4
599618168864786048,7
599618168872473216,2
599618168880160384,4
599618168887847680,4
599618168895534848,-2
599618168903222016,-7
599618168910909184,-2
599618168918596352,-2
599618168926283648,-14
599618168933970816,-2
599618168941657984,28
599618168949345152,38
599618168957032320,33
599618168964719616,21
599618168972406784,11
599618168980093952,9
599618168987781120,9
599618168995468398,4
599618169003155712,4
599618169010843008,7
599618169018530432,7
599618169026217728,4
599618169033905024,16
599618169041592320,16
599618169049279744,-21
599618169056967040,-112
599618169064654336,-226
599618169072341632,-114
599618169080029056,372
599618169087716352,862
599618169095403648,769
599618169103091072,131
599618169110778368,-277
599618169118465664,-183
599618169126152960,-59
599618169133840384,-40
599618169141527680,-7
599618169149214976,7
599618169156902272,0
599618169164589696,4
599618169172276992,14
599618169179964288,21
599618169187651712,26
599618169195339008,31
599618169203026304,35
599618169210713600,38
599618169218401024,45
599618169226088320,54
599618169233775616,57
599618169241462912,59
599618169249150336,69
599618169256837632,85
599618169264524928,95
599618169272212352,100
599618169279899648,117
599618169287586944,138
599618169295274240,150
599618169302961664,160
599618169310648960,169
599618169318336256,176
599618169326023552,176
599618169333710976,160
599618169341398272,126
599618169349085568,95
599618169356772992,57
599618169364460288,7
599618169372147584,-31
599618169379834880,-50
599618169387522304,-69
599618169395209600,-81
599618169402896896,-83
599618169410584192,-83
599618169418271616,-83
599618169425958912,-74
599618169433646208,-69
599618169441333632,-69
599618169449020928,-62
599618169456708224,-62
599618169464395520,-66
599618169472082944,-59
599618169479770240,-50
599618169487457536,-54
599618169495144832,-59
599618169502832256,-45
599618169510519552,-35
599618169518206848,-40
599618169525894272,-33
599618169533581568,-26
599618169541268864,-26
599618169548956160,-16
599618169556643552,-11
599618169564330752,-19
599618169572017920,-16
599618169579704960,-7
599618169587392128,-4
599618169595079296,-9
599618169602766336,-9
599618169610453504,-4
599618169618140544,-7
599618169625827712,-9
599618169633514880,-4
599618169641201920,-2
599618169648889088,-4
599618169656576256,-4
599618169664263296,-2
599618169671950464,-2
599618169679637632,2
599618169687324672,2
599618169695011840,0
599618169702699008,-2
599618169710386048,0
599618169718073216,0
599618169725760256,2
599618169733447424,11
599618169741134592,4
599618169748821632,-4
599618169756508800,4
599618169764195968,11
599618169771883008,7
599618169779570176,2
599618169787257344,-7
599618169794944384,-4
599618169802631552,4
599618169810318592,7
599618169818005760,9
599618169825692928,2
599618169833379968,-2
599618169841067136,4
599618169848754304,14
599618169856441344,7
599618169864128512,9
599618169871815680,14
599618169879502720,4
599618169887189888,4
599618169894877056,14
599618169902564096,14
599618169910251264,9
599618169917938304,11
599618169925625472,16
599618169933312640,16
599618169940999680,9
599618169948686848,11
599618169956374016,16
599618169964061056,2
599618169971748224,-2
599618169979435392,2
599618169987122432,2
599618169994809600,21
599618170002496640,42
599618170010183808,50
599618170017870976,47
599618170025558016,40
599618170033245184,26
599618170040932352,14
599618170048619392,14
599618170056306560,16
599618170063993728,16
599618170071680768,23
599618170079367936,19
599618170087054976,16
599618170094742144,23
599618170102429312,4
599618170110116352,-78
599618170117803449,-210
599618170125490560,-183
599618170133177728,229
599618170140864768,807
599618170148551936,938
599618170156239104,382
599618170163926144,-212
599618170171613312,-246
599618170179300352,-74
599618170186987520,-50
599618170194674688,-33
599618170202361728,2
599618170210048896,-2
599618170217736064,-9
599618170225423104,2
599618170233110272,14
599618170240797440,19
599618170248484480,19
599618170256171648,26
599618170263858816,33
599618170271545856,28
599618170279233024,31
599618170286920064,52
599618170294607232,59
599618170302294400,54
599618170309981440,64
599618170317668608,76
599618170325355776,85
599618170333042816,102
599618170340729984,117
599618170348417152,131
599618170356104192,148
599618170363791360,155
599618170371478400,155
599618170379165568,150
599618170386852736,143
599618170394539776,133
599618170402226944,112
599618170409914112,78
599618170417601152,38
599618170425288320,-9
599618170432975488,-42
599618170440662528,-54
599618170448349696,-66
599618170456036864,-78
599618170463723904,-78
599618170471411072,-78
599618170479098112,-78
599618170486785280,-74
599618170494472448,-71
599618170502159488,-71
599618170509846656,-66
599618170517533824,-66
599618170525220864,-62
599618170532908032,-54
599618170540595200,-50
599618170548282240,-47
599618170555969408,-42
599618170563656448,-40
599618170571343616,-38
599618170579030784,-33
599618170586717824,-26
599618170594404992,-28
599618170602092160,-31
599618170609779200,-26
599618170617466368,-14
599618170625153536,-11
599618170632840576,-21
599618170640527744,-19
599618170648214784,-7
599618170655901952,-11
599618170663589120,-14
599618170671276160,-4
599618170678963346,-4
599618170686650496,-9
599618170694337664,-9
599618170702024704,-7
599618170709711872,-7
599618170717399040,-7
599618170725086080,2
599618170732773248,0
599618170740460288,-9
599618170748147456,0
599618170755834624,4
599618170763521664,4
599618170771208832,2
599618170778896000,0
599618170786583040,0
599618170794270208,7
599618170801957376,7
599618170809644416,7
599618170817331584,4
599618170825018752,7
599618170832705792,7
599618170840392960,4
599618170848080000,7
599618170855767168,14
599618170863454336,14
599618170871141376,14
599618170878828544,11
599618170886515712,2
599618170894202752,4
599618170901889920,16
599618170909577088,14
599618170917264128,7
599618170924951296,9
599618170932638336,9
599618170940325504,7
599618170948012672,16
599618170955699712,16
599618170963386880,11
599618170971074048,14
599618170978761088,14
599618170986448256,9
599618170994135424,14
599618171001822464,19
599618171009509632,11
599618171017196800,-2
599618171024883840,-9
599618171032571008,-4
599618171040258048,9
599618171047945216,23
599618171055632384,40
599618171063319424,45
599618171071006592,40
599618171078693760,26
599618171086380800,14
599618171094067968,9
599618171101755136,19
599618171109442176,21
599618171117129344,16
599618171124816384,16
599618171132503552,19
599618171140190720,14
599618171147877760,11
599618171155564928,-9
599618171163252096,-107
599618171170939136,-231
599618171178626304,-105
599618171186313472,420
599618171194000512,953
599618171201687680,855
599618171209374848,164
599618171217061888,-293
599618171224749056,-200
599618171232436096,-64
599618171240123247,-52
599618171247810560,-19
599618171255497856,-7
599618171263185024,-16
599618171270872320,-2
599618171278559616,7
599618171286246912,4
599618171293934080,16
599618171301621376,23
599618171309308672,21
599618171316995968,26
599618171324683136,31
599618171332370432,35
599618171340057728,45
599618171347744896,50
599618171355432192,57
599618171363119488,71
599618171370806784,85
599618171378493952,95
599618171386181248,112
599618171393868544,126
599618171401555840,138
599618171409243008,152
599618171416930304,167
599618171424617600,171
599618171432304768,169
599618171439992064,162
599618171447679360,140
599618171455366656,109
599618171463053824,71
599618171470741120,28
599618171478428416,-9
599618171486115712,-40
599618171493802880,-59
599618171501490176,-69
599618171509177472,-83
599618171516864640,-90
599618171524551936,-81
599618171532239232,-76
599618171539926528,-78
599618171547613696,-76
599618171555300992,-71
599618171562988288,-69
599618171570675584,-64
599618171578362752,-59
599618171586050048,-59
599618171593737344,-54
599618171601424640,-47
599618171609111808,-47
599618171616799104,-42
599618171624486400,-38
599618171632173568,-35
599618171639860864,-31
599618171647548160,-28
599618171655235456,-23
599618171662922624,-19
599618171670609920,-14
599618171678297216,-14
599618171685984512,-16
599618171693671680,-19
599618171701358976,-14
599618171709046272,-14
599618171716733440,-16
599618171724420736,-11
599618171732108032,-9
599618171739795328,-7
599618171747482496,-7
599618171755169792,-9
599618171762857088,-9
599618171770544384,-7
599618171778231552,-7
599618171785918848,-9
599618171793606144,-7
599618171801293318,0
599618171808980480,0
599618171816667648,-2
599618171824354816,0
599618171832042112,-4
599618171839729280,-4
599618171847416448,2
599618171855103616,0
599618171862790784,-2
599618171870477952,0
599618171878165248,2
599618171885852416,-2
599618171893539584,2
599618171901226752,4
599618171908913920,0
599618171916601216,-2
599618171924288384,4
599618171931975552,4
599618171939662720,4
599618171947349888,4
599618171955037056,4
599618171962724352,7
599618171970411520,4
599618171978098688,4
599618171985785856,9
599618171993473024,11
599618172001160320,7
599618172008847488,2
599618172016534656,7
599618172024221824,9
599618172031908992,4
599618172039596288,0
599618172047283456,-7
599618172054970624,-9
599618172062657792,4
599618172070344960,23
599618172078032128,35
599618172085719424,45
599618172093406592,47
599618172101093760,33
599618172108780928,14
599618172116468096,11
599618172124155392,14
599618172131842560,14
599618172139529728,14
599618172147216896,14
599618172154904064,19
599618172162591232,21
599618172170278528,16
599618172177965696,-11
599618172185652864,-114
599618172193340032,-229
599618172201027200,-95
599618172208714496,437
599618172216401664,991
599618172224088832,895
599618172231776000,169
599618172239463168,-303
599618172247150336,-198
599618172254837632,-69
599618172262524800,-64
599618172270211968,-16
599618172277899136,4
599618172285586304,-14
599618172293273600,-7
599618172300960768,9
599618172308647936,9
599618172316335104,7
599618172324022272,16
599618172331709568,26
599618172339396736,28
599618172347083904,33
599618172354771072,40
599618172362458302,42
599618172370145152,47
599618172377832064,62
599618172385518976,74
599618172393205888,81
599618172400892800,95
599618172408579712,112
599618172416266624,126
599618172423953536,143
599618172431640448,157
599618172439327360,164
599618172447014272,171
599618172454701184,174
599618172462388096,167
599618172470075008,145
599618172477761920,119
599618172485448832,88
599618172493135744,40
599618172500822656,-7
599618172508509568,-40
599618172516196480,-57
599618172523883392,-66
599618172531570304,-76
599618172539257216,-85
599618172546944128,-81
599618172554631040,-78
599618172562317952,-76
599618172570004864,-74
599618172577691776,-71
599618172585378688,-64
599618172593065600,-59
599618172600752512,-64
599618172608439424,-59
599618172616126336,-47
599618172623813248,-47
599618172631500160,-47
599618172639187072,-40
599618172646873984,-35
599618172654560896,-35
599618172662247808,-33
599618172669934720,-28
599618172677621632,-21
599618172685308544,-19
599618172692995456,-21
599618172700682368,-19
599618172708369280,-9
599618172716056192,-16
599618172723743104,-19
599618172731430016,-11
599618172739116928,-11
599618172746803840,-14
599618172754490752,-9
599618172762177664,-9
599618172769864576,-11
599618172777551488,-7
599618172785238400,-7
599618172792925312,-11
599618172800612224,-7
599618172808299136,0
599618172815986048,-4
599618172823672960,-7
599618172831359872,-4
599618172839046784,-2
599618172846733696,-4
599618172854420608,-2
599618172862107520,-2
599618172869794432,-4
599618172877481344,-2
599618172885168256,0
599618172892855168,0
599618172900542080,2
599618172908228992,4
599618172915915904,2
599618172923602938,2
599618172931290368,2
599618172938977792,2
599618172946665344,4
599618172954352768,2
599618172962040192,2
599618172969727744,4
599618172977415168,9
599618172985102720,7
599618172992790144,2
599618173000477568,0
599618173008165120,4
599618173015852544,11
599618173023539968,11
599618173031227520,7
599618173038914944,2
599618173046602368,4
599618173054289920,4
599618173061977344,-7
599618173069664896,-16
599618173077352320,-7
599618173085039744,21
599618173092727296,38
599618173100414720,40
599618173108102144,38
599618173115789696,31
599618173123477120,11
599618173131164544,4
599618173138852096,11
599618173146539520,14
599618173154226944,9
599618173161914496,9
599618173169601920,14
599618173177289472,16
599618173184976896,14
599618173192664320,-19
599618173200351872,-138
599618173208039296,-246
599618173215726720,-62
599618173223414272,515
599618173231101696,1053
599618173238789120,900
599618173246476672,148
599618173254164096,-305
599618173261851648,-195
599618173269539072,-69
599618173277226496,-66
599618173284914048,-33
599618173292601472,-14
599618173300288896,-21
599618173307976448,-11
599618173315663872,2
599618173323351296,2
599618173331038848,2
599618173338726272,7
599618173346413824,14
599618173354101248,21
599618173361788672,26
599618173369476224,31
599618173377163648,38
599618173384851072,47
599618173392538624,52
599618173400226048,64
599618173407913472,78
599618173415601024,85
599618173423288448,102
599618173430976000,124
599618173438663424,140
599618173446350848,155
599618173454038400,164
599618173461725824,167
599618173469413248,167
599618173477100800,167
599618173484788270,145
599618173492475392,107
599618173500162560,74
599618173507849728,35
599618173515537024,-9
599618173523224192,-42
599618173530911360,-59
599618173538598528,-66
599618173546285696,-76
599618173553972864,-83
599618173561660160,-81
599618173569347328,-78
599618173577034496,-76
599618173584721664,-74
599618173592408832,-71
599618173600096128,-69
599618173607783296,-64
599618173615470464,-59
599618173623157632,-54
599618173630844800,-52
599618173638531968,-50
599618173646219264,-45
599618173653906432,-40
599618173661593600,-38
599618173669280768,-35
599618173676967936,-31
599618173684655232,-28
599618173692342400,-23
599618173700029568,-19
599618173707716736,-19
599618173715403904,-16
599618173723091200,-16
599618173730778368,-16
599618173738465536,-11
599618173746152704,-14
599618173753839872,-19
599618173761527040,-16
599618173769214336,-11
599618173776901504,-14
599618173784588672,-14
599618173792275840,-14
599618173799963008,-14
599618173807650304,-11
599618173815337472,-4
599618173823024640,-4
599618173830711808,-9
599618173838398976,-9
599618173846086144,-4
599618173853773440,-2
599618173861460608,-4
599618173869147776,-9
599618173876834944,-7
599618173884522112,-4
599618173892209408,-4
599618173899896576,-7
599618173907583744,-4
599618173915270912,-2
599618173922958080,0
599618173930645248,-2
599618173938332544,-7
599618173946019712,0
599618173953706880,7
599618173961394048,-2
599618173969081216,-4
599618173976768512,2
599618173984455680,0
599618173992142848,-2
599618173999830016,2
599618174007517184,2
599618174015204352,-2
599618174022891648,0
599618174030578816,2
599618174038265984,-2
599618174045953250,-4
599618174053640448,-9
599618174061327616,-23
599618174069014656,-16
599618174076701824,7
599618174084388992,26
599618174092076032,33
599618174099763200,35
599618174107450240,35
599618174115137408,21
599618174122824576,4
599618174130511616,7
599618174138198784,9
599618174145885952,4
599618174153572992,4
599618174161260160,9
599618174168947328,7
599618174176634368,7
599618174184321536,2
599618174192008704,-66
599618174199695744,-210
599618174207382912,-210
599618174215069952,193
599618174222757120,850
599618174230444288,1110
599618174238131328,556
599618174245818496,-176
599618174253505664,-293
599618174261192704,-107
599618174268879872,-71
599618174276567040,-54
599618174284254080,-16
599618174291941248,-26
599618174299628288,-31
599618174307315456,-11
599618174315002624,-2
599618174322689664,0
599618174330376832,4
599618174338064000,9
599618174345751040,14
599618174353438208,19
599618174361125376,21
599618174368812416,26
599618174376499584,35
599618174384186752,47
599618174391873792,54
599618174399560960,64
599618174407248000,78
599618174414935168,93
599618174422622336,107
599618174430309376,119
599618174437996544,133
599618174445683712,152
599618174453370752,160
599618174461057920,157
599618174468745088,157
599618174476432128,148
599618174484119296,121
599618174491806336,90
599618174499493504,54
599618174507180672,11
599618174514867712,-23
599618174522554880,-45
599618174530242048,-64
599618174537929088,-76
599618174545616256,-81
599618174553303424,-83
599618174560990464,-81
599618174568677632,-76
599618174576364800,-76
599618174584051840,-74
599618174591739008,-69
599618174599426048,-64
599618174607113151,-57
599618174614800384,-52
599618174622487680,-50
599618174630174848,-47
599618174637862144,-42
599618174645549440,-38
599618174653236736,-38
599618174660923904,-35
599618174668611200,-31
599618174676298496,-26
599618174683985792,-21
599618174691672960,-16
599618174699360256,-19
599618174707047552,-19
599618174714734720,-14
599618174722422016,-11
599618174730109312,-11
599618174737796608,-9
599618174745483776,-9
599618174753171072,-11
599618174760858368,-11
599618174768545664,-9
599618174776232832,-9
599618174783920128,-7
599618174791607424,-9
599618174799294592,-9
599618174806981888,-4
599618174814669184,-4
599618174822356480,-4
599618174830043648,-4
599618174837730944,-4
599618174845418240,-4
599618174853105536,-2
599618174860792704,0
599618174868480000,-2
599618174876167296,0
599618174883854464,2
599618174891541760,0
599618174899229056,-2
599618174906916352,4
599618174914603520,4
599618174922290816,2
599618174929978112,0
599618174937665408,2
599618174945352576,2
599618174953039872,2
599618174960727168,4
599618174968414464,2
599618174976101632,2
599618174983788928,4
599618174991476224,7
599618174999163392,7
599618175006850688,7
599618175014537984,4
599618175022225280,4
599618175029912448,7
599618175037599744,7
599618175045287040,4
599618175052974336,2
599618175060661504,-7
599618175068348800,-19
599618175076036096,-14
599618175083723264,7
599618175091410560,23
599618175099097856,33
599618175106785152,42
599618175114472320,38
599618175122159616,19
599618175129846912,7
599618175137534208,9
599618175145221376,9
599618175152908672,7
599618175160595968,11
599618175168283222,14
599618175175970432,11
599618175183657600,14
599618175191344768,9
599618175199032064,-64
599618175206719232,-207
599618175214406400,-214
599618175222093568,183
599618175229780736,852
599618175237467904,1146
599618175245155200,601
599618175252842368,-160
599618175260529536,-298
599618175268216704,-107
599618175275903872,-64
599618175283591168,-57
599618175291278336,-23
599618175298965504,-26
599618175306652672,-28
599618175314339840,-9
599618175322027008,-4
599618175329714304,-4
599618175337401472,2
599618175345088640,7
599618175352775808,9
599618175360462976,16
599618175368150272,23
599618175375837440,26
599618175383524608,33
599618175391211776,40
599618175398898944,47
599618175406586240,62
599618175414273408,71
599618175421960576,83
599618175429647744,100
599618175437334912,114
599618175445022080,126
599618175452709376,138
599618175460396544,150
599618175468083712,150
599618175475770880,140
599618175483458048,131
599618175491145344,114
599618175498832512,88
599618175506519680,47
599618175514206848,9
599618175521894016,-21
599618175529581184,-42
599618175537268480,-59
599618175544955648,-71
599618175552642816,-76
599618175560329984,-76
599618175568017152,-76
599618175575704448,-71
599618175583391616,-69
599618175591078784,-66
599618175598765952,-59
599618175606453120,-57
599618175614140288,-57
599618175621827584,-52
599618175629514752,-45
599618175637201920,-45
599618175644889088,-42
599618175652576256,-38
599618175660263552,-33
599618175667950720,-28
599618175675637888,-26
599618175683325056,-23
599618175691012224,-21
599618175698699520,-19
599618175706386688,-16
599618175714073856,-14
599618175721761024,-11
599618175729448206,-11
599618175737135360,-11
599618175744822528,-11
599618175752509696,-11
599618175760196992,-11
599618175767884160,-9
599618175775571328,-7
599618175783258496,-11
599618175790945664,-11
599618175798632832,-7
599618175806320128,-4
599618175814007296,-7
599618175821694464,-4
599618175829381632,-4
599618175837068800,-4
599618175844756096,0
599618175852443264,4
599618175860130432,0
599618175867817600,0
599618175875504768,0
599618175883191936,0
599618175890879232,-2
599618175898566400,0
599618175906253568,4
599618175913940736,4
599618175921627904,4
599618175929315200,4
599618175937002368,7
599618175944689536,4
599618175952376704,4
599618175960063872,4
599618175967751168,4
599618175975438336,7
599618175983125504,7
599618175990812672,7
599618175998499840,9
599618176006187008,9
599618176013874304,11
599618176021561472,7
599618176029248640,7
599618176036935808,7
599618176044622976,4
599618176052310272,4
599618176059997440,2
599618176067684608,-9
599618176075371776,-19
599618176083058944,-4
599618176090746112,23
599618176098433408,38
599618176106120576,40
599618176113807744,40
599618176121494912,28
599618176129182080,7
599618176136869376,7
599618176144556544,16
599618176152243712,16
599618176159930880,14
599618176167618048,14
599618176175305216,14
599618176182992512,16
599618176190679680,14
599618176198366848,-42
599618176206054016,-179
599618176213741184,-226
599618176221428480,102
599618176229115648,761
599618176236802816,1182
599618176244489984,764
599618176252177152,-69
599618176259864448,-341
599618176267551616,-145
599618176275238784,-64
599618176282925952,-57
599618176290613190,-16
599618176298300416,-19
599618176305987584,-26
599618176313674752,-7
599618176321362048,0
599618176329049216,4
599618176336736384,16
599618176344423552,19
599618176352110720,19
599618176359797888,23
599618176367485184,33
599618176375172352,42
599618176382859520,47
599618176390546688,50
599618176398233856,64
599618176405921152,81
599618176413608320,90
599618176421295488,97
599618176428982656,112
599618176436669824,131
599618176444356992,145
599618176452044288,160
599618176459731456,171
599618176467418624,176
599618176475105792,169
599618176482792960,152
599618176490480256,136
599618176498167424,114
599618176505854592,74
599618176513541760,26
599618176521228928,-9
599618176528916224,-26
599618176536603392,-47
599618176544290560,-64
599618176551977728,-71
599618176559664896,-74
599618176567352064,-76
599618176575039360,-74
599618176582726528,-74
599618176590413696,-71
599618176598100864,-66
599618176605788032,-62
599618176613475328,-52
599618176621162496,-47
599618176628849664,-47
599618176636536832,-42
599618176644224000,-35
599618176651911168,-38
599618176659598464,-33
599618176667285632,-26
599618176674972800,-23
599618176682659968,-26
599618176690347136,-23
599618176698034432,-11
599618176705721600,-7
599618176713408768,-14
599618176721095936,-19
599618176728783104,-11
599618176736470272,-7
599618176744157568,-11
599618176751844736,-16
599618176759531904,-14
599618176767219072,-9
599618176774906240,-9
599618176782593536,-9
599618176790280704,-9
599618176797967872,-9
599618176805655040,-9
599618176813342208,-7
599618176821029504,-2
599618176828716672,-4
599618176836403840,-7
599618176844091008,-2
599618176851778174,4
599618176859465344,0
599618176867152512,-4
599618176874839680,0
599618176882526976,-2
599618176890214144,-4
599618176897901312,0
599618176905588480,2
599618176913275648,-2
599618176920962816,-2
599618176928650112,2
599618176936337280,2
599618176944024448,0
599618176951711616,-2
599618176959398784,-4
599618176967086080,-16
599618176974773248,-11
599618176982460416,14
599618176990147584,31
599618176997834752,31
599618177005521920,38
599618177013209216,33
599618177020896384,11
599618177028583552,4
599618177036270720,9
599618177043957888,4
599618177051645184,0
599618177059332352,4
599618177067019520,11
599618177074706688,14
599618177082393856,11
599618177090081152,-2
599618177097768320,-76
599618177105455488,-219
599618177113142656,-200
599618177120829824,241
599618177128516992,905
599618177136204288,1093
599618177143891456,417
599618177151578624,-339
599618177159265792,-358
599618177166952960,-126
599618177174640256,-100
599618177182327424,-45
599618177190014592,11
599618177197701760,-19
599618177205388928,-19
599618177213076096,14
599618177220763392,14
599618177228450560,11
599618177236137728,26
599618177243824896,28
599618177251512064,28
599618177259199360,42
599618177266886528,45
599618177274573696,45
599618177282260864,57
599618177289948032,74
599618177297635200,85
599618177305322496,97
599618177313009664,105
599618177320696832,117
599618177328384000,136
599618177336071168,157
599618177343758464,174
599618177351445632,183
599618177359132800,183
599618177366819968,188
599618177374507136,188
599618177382194432,171
599618177389881600,140
599618177397568768,105
599618177405255936,59
599618177412943158,11
599618177420630272,-26
599618177428317440,-47
599618177436004480,-66
599618177443691648,-85
599618177451378816,-95
599618177459065856,-93
599618177466753024,-83
599618177474440064,-83
599618177482127232,-85
599618177489814400,-78
599618177497501440,-69
599618177505188608,-66
599618177512875776,-66
599618177520562816,-66
599618177528249984,-59
599618177535937152,-47
599618177543624192,-42
599618177551311360,-50
599618177558998528,-42
599618177566685568,-31
599618177574372736,-31
599618177582059776,-31
599618177589746944,-26
599618177597434112,-23
599618177605121152,-19
599618177612808320,-19
599618177620495488,-23
599618177628182528,-19
599618177635869696,-16
599618177643556864,-16
599618177651243904,-14
599618177658931072,-14
599618177666618112,-19
599618177674305280,-16
599618177681992448,-9
599618177689679488,-9
599618177697366656,-11
599618177705053824,-11
599618177712740864,-9
599618177720428032,-9
599618177728115200,-7
599618177735802240,-9
599618177743489408,-11
599618177751176576,-16
599618177758863616,-26
599618177766550784,-21
599618177774237824,2
599618177781924992,19
599618177789612160,28
599618177797299200,33
599618177804986368,21
599618177812673536,2
599618177820360576,0
599618177828047744,4
599618177835734912,-2
599618177843421952,-2
599618177851109120,7
599618177858796160,11
599618177866483328,7
599618177874170496,0
599618177881857536,-4
599618177889544704,-62
599618177897231872,-200
599618177904918912,-224
599618177912606080,143
599618177920293248,785
599618177927980288,1053
599618177935667456,468
599618177943354496,-298
599618177951041664,-379
599618177958728832,-145
599618177966415872,-95
599618177974103055,-45
599618177981790208,16
599618177989477376,-7
599618177997164416,-11
599618178004851584,16
599618178012538752,16
599618178020225792,19
599618178027912960,33
599618178035600000,28
599618178043287168,31
599618178050974336,42
599618178058661376,42
599618178066348544,47
599618178074035712,64
599618178081722752,78
599618178089409920,85
599618178097097088,97
599618178104784128,112
599618178112471296,126
599618178120158464,145
599618178127845504,167
599618178135532672,181
599618178143219712,193
599618178150906880,203
599618178158594048,203
599618178166281088,195
599618178173968256,179
599618178181655424,145
599618178189342464,107
599618178197029632,57
599618178204716800,2
599618178212403840,-33
599618178220091008,-57
599618178227778048,-81
599618178235465216,-90
599618178243152384,-90
599618178250839424,-95
599618178258526592,-93
599618178266213760,-83
599618178273900800,-83
599618178281587968,-83
599618178289275136,-71
599618178296962176,-64
599618178304649344,-66
599618178312336512,-66
599618178320023552,-62
599618178327710720,-50
599618178335397760,-45
599618178343084928,-45
599618178350772096,-42
599618178358459136,-33
599618178366146304,-31
599618178373833472,-33
599618178381520512,-26
599618178389207680,-23
599618178396894848,-21
599618178404581888,-21
599618178412269056,-21
599618178419956096,-19
599618178427643264,-21
599618178435330432,-21
599618178443017472,-19
599618178450704640,-19
599618178458391808,-23
599618178466078848,-16
599618178473766016,-14
599618178481453184,-31
599618178489140224,-45
599618178496827392,-38
599618178504514432,-11
599618178512201600,2
599618178519888768,9
599618178527575808,28
599618178535262952,21
599618178542949888,-4
599618178550636800,-9
599618178558323712,-2
599618178566010624,-7
599618178573697536,-9
599618178581384448,0
599618178589071360,4
599618178596758272,-2
599618178604445184,0
599618178612132096,2
599618178619819008,-45
599618178627505920,-176
599618178635192832,-253
599618178642879744,4
599618178650566656,609
599618178658253568,1022
599618178665940480,640
599618178673627392,-155
599618178681314304,-403
599618178689001216,-188
599618178696688128,-97
599618178704375040,-62
599618178712061952,14
599618178719748864,0
599618178727435776,-21
599618178735122688,9
599618178742809600,21
599618178750496512,7
599618178758183424,19
599618178765870336,33
599618178773557248,28
599618178781244160,33
599618178788931072,45
599618178796617984,47
599618178804304896,57
599618178811991808,71
599618178819678720,74
599618178827365632,81
599618178835052544,102
599618178842739456,119
599618178850426368,138
599618178858113280,157
599618178865800192,167
599618178873487104,181
599618178881174016,191
599618178888860928,188
599618178896547840,186
599618178904234752,176
599618178911921664,140
599618178919608576,95
599618178927295488,54
599618178934982400,-2
599618178942669312,-47
599618178950356224,-59
599618178958043136,-74
599618178965730048,-97
599618178973416960,-102
599618178981103872,-93
599618178988790784,-93
599618178996477696,-90
599618179004164608,-83
599618179011851520,-83
599618179019538432,-81
599618179027225344,-71
599618179034912256,-69
599618179042599168,-69
599618179050286080,-66
599618179057972992,-62
599618179065659904,-50
599618179073346816,-45
599618179081033728,-47
599618179088720640,-35
599618179096407592,-33
599618179104094720,-42
599618179111781888,-31
599618179119469056,-21
599618179127156352,-28
599618179134843520,-26
599618179142530688,-21
599618179150217856,-26
599618179157905024,-23
599618179165592192,-16
599618179173279488,-23
599618179180966656,-31
599618179188653824,-35
599618179196340992,-35
599618179204028160,-35
599618179211715456,-33
599618179219402624,-14
599618179227089792,7
599618179234776960,16
599618179242464128,19
599618179250151296,4
599618179257838592,-14
599618179265525760,-11
599618179273212928,-9
599618179280900096,-14
599618179288587264,-9
599618179296274560,4
599618179303961728,2
599618179311648896,-4
599618179319336064,-9
599618179327023232,-14
599618179334710528,-85
599618179342397696,-224
599618179350084864,-200
599618179357772032,224
599618179365459200,831
599618179373146368,953
599618179380833664,315
599618179388520832,-317
599618179396208000,-300
599618179403895168,-105
599618179411582336,-76
599618179419269632,-33
599618179426956800,4
599618179434643968,-19
599618179442331136,-14
599618179450018304,11
599618179457705472,4
599618179465392768,2
599618179473079936,19
599618179480767104,26
599618179488454272,19
599618179496141440,26
599618179503828736,40
599618179511515904,42
599618179519203072,45
599618179526890240,64
599618179534577408,81
599618179542264576,85
599618179549951872,95
599618179557639040,112
599618179565326208,124
599618179573013376,140
599618179580700544,167
599618179588387840,174
599618179596075008,169
599618179603762176,167
599618179611449344,160
599618179619136512,133
599618179626823808,95
599618179634510976,52
599618179642198144,4
599618179649885312,-33
599618179657572576,-59
599618179665259776,-78
599618179672946944,-97
599618179680634112,-102
599618179688321408,-93
599618179696008576,-88
599618179703695744,-93
599618179711382912,-88
599618179719070080,-78
599618179726757248,-81
599618179734444544,-78
599618179742131712,-74
599618179749818880,-66
599618179757506048,-62
599618179765193216,-57
599618179772880512,-50
599618179780567680,-50
599618179788254848,-47
599618179795942016,-40
599618179803629184,-40
599618179811316352,-42
599618179819003648,-33
599618179826690816,-28
599618179834377984,-28
599618179842065152,-26
599618179849752320,-23
599618179857439616,-28
599618179865126784,-31
599618179872813952,-21
599618179880501120,-16
599618179888188288,-21
599618179895875584,-23
599618179903562752,-21
599618179911249920,-21
599618179918937088,-16
599618179926624256,-16
599618179934311424,-26
599618179941998720,-38
599618179949685888,-35
599618179957373056,-19
599618179965060224,0
599618179972747392,11
599618179980434688,16
599618179988121856,14
599618179995809024,0
599618180003496192,-7
599618180011183360,-7
599618180018870528,-9
599618180026557824,-9
599618180034244992,-2
599618180041932160,7
599618180049619328,9
599618180057306496,14
599618180064993792,14
599618180072680960,-14
599618180080368128,-109
599618180088055296,-231
599618180095742464,-162
599618180103429632,286
599618180111116928,850
599618180118804096,869
599618180126491264,217
599618180134178432,-298
599618180141865600,-234
599618180149552896,-81
599618180157240064,-66
599618180164927232,-28
599618180172614400,0
599618180180301568,-21
599618180187988864,-19
599618180195676032,4
599618180203363200,0
599618180211050368,-2
599618180218737560,14
599618180226424704,26
599618180234111872,19
599618180241799040,23
599618180249486336,31
599618180257173504,40
599618180264860672,50
599618180272547840,52
599618180280235008,64
599618180287922176,78
599618180295609472,83
599618180303296640,97
599618180310983808,119
599618180318670976,131
599618180326358144,140
599618180334045440,150
599618180341732608,148
599618180349419776,138
599618180357106944,133
599618180364794112,119
599618180372481280,81
599618180380168576,31
599618180387855744,-2
599618180395542912,-28
599618180403230080,-59
599618180410917248,-76
599618180418604544,-81
599618180426291712,-88
599618180433978880,-90
599618180441666048,-83
599618180449353216,-76
599618180457040512,-74
599618180464727680,-69
599618180472414848,-71
599618180480102016,-69
599618180487789184,-59
599618180495476352,-62
599618180503163648,-62
599618180510850816,-50
599618180518537984,-47
599618180526225152,-42
599618180533912320,-38
599618180541599616,-33
599618180549286784,-35
599618180556973952,-38
599618180564661120,-28
599618180572348288,-23
599618180580035456,-21
599618180587722752,-19
599618180595409920,-23
599618180603097088,-28
599618180610784256,-19
599618180618471424,-11
599618180626158720,-19
599618180633845888,-19
599618180641533056,-9
599618180649220224,-11
599618180656907392,-11
599618180664594560,-9
599618180672281856,-9
599618180679969024,-9
599618180687656192,-9
599618180695343360,-9
599618180703030528,-7
599618180710717824,-4
599618180718404992,2
599618180726092160,-2
599618180733779328,-11
599618180741466496,-2
599618180749153792,11
599618180756840960,-2
599618180764528128,-16
599618180772215296,-4
599618180779902544,-2
599618180787589760,-16
599618180795276928,-4
599618180802963968,26
599618180810651136,28
599618180818338304,23
599618180826025344,31
599618180833712512,23
599618180841399552,7
599618180849086720,4
599618180856773888,7
599618180864460928,7
599618180872148096,7
599618180879835264,9
599618180887522304,11
599618180895209472,11
599618180902896640,7
599618180910583680,4
599618180918270848,-23
599618180925958016,-145
599618180933645056,-241
599618180941332224,-23
599618180949019264,532
599618180956706432,941
599618180964393600,652
599618180972080640,-33
599618180979767808,-284
599618180987454976,-117
599618180995142016,-42
599618181002829184,-42
599618181010516352,0
599618181018203392,0
599618181025890560,-16
599618181033577600,11
599618181041264768,21
599618181048951936,-2
599618181056638976,7
599618181064326144,31
599618181072013312,28
599618181079700352,26
599618181087387520,31
599618181095074688,33
599618181102761728,42
599618181110448896,54
599618181118136064,57
599618181125823104,62
599618181133510272,81
599618181141197312,97
599618181148884480,93
599618181156571648,105
599618181164258688,138
599618181171945856,140
599618181179633024,126
599618181187320064,138
599618181195007232,150
599618181202694400,119
599618181210381440,88
599618181218068608,78
599618181225755648,50
599618181233442816,-2
599618181241129984,-42
599618181248817024,-57
599618181256504192,-62
599618181264191360,-64
599618181271878400,-69
599618181279565568,-74
599618181287252736,-69
599618181294939776,-66
599618181302626944,-69
599618181310313984,-62
599618181318001152,-50
599618181325688320,-52
599618181333375360,-54
599618181341062441,-40
599618181348749568,-40
599618181356436736,-52
599618181364123776,-38
599618181371810944,-16
599618181379498112,-35
599618181387185152,-47
599618181394872320,-21
599618181402559360,-11
599618181410246528,-31
599618181417933696,-26
599618181425620736,-11
599618181433307904,-11
599618181440995072,-16
599618181448682112,-11
599618181456369280,-4
599618181464056448,-16
599618181471743488,-11
599618181479430656,-2
599618181487117824,-14
599618181494804864,-19
599618181502492032,2
599618181510179072,4
599618181517866240,-7
599618181525553408,-14
599618181533240448,-9
599618181540927616,7
599618181548614784,4
599618181556301824,-4
599618181563988992,-2
599618181571676160,0
599618181579363200,0
599618181587050368,4
599618181594737408,4
599618181602424576,0
599618181610111744,4
599618181617798784,11
599618181625485952,7
599618181633173120,-2
599618181640860160,0
599618181648547328,-2
599618181656234496,-9
599618181663921536,-4
599618181671608704,2
599618181679295872,7
599618181686982912,21
599618181694670080,45
599618181702357120,42
599618181710044288,19
599618181717731456,4
599618181725418496,16
599618181733105664,26
599618181740792832,11
599618181748479872,-2
599618181756167040,9
599618181763854208,21
599618181771541248,9
599618181779228416,4
599618181786915456,19
599618181794602624,-7
599618181802289792,-109
599618181809976832,-234
599618181817664000,-128
599618181825351168,351
599618181833038208,850
599618181840725376,773
599618181848412544,148
599618181856099584,-262
599618181863786752,-174
599618181871473792,-50
599618181879160960,-45
599618181886848128,-19
599618181894535168,-4
599618181902222338,-21
599618181909909248,0
599618181917596160,21
599618181925283072,4
599618181932969984,7
599618181940656896,28
599618181948343808,33
599618181956030720,23
599618181963717632,31
599618181971404544,57
599618181979091456,62
599618181986778368,42
599618181994465280,50
599618182002152192,83
599618182009839104,76
599618182017526016,74
599618182025212928,107
599618182032899840,117
599618182040586752,107
599618182048273664,131
599618182055960576,145
599618182063647488,131
599618182071334400,128
599618182079021312,121
599618182086708224,93
599618182094395136,71
599618182102082048,47
599618182109768960,7
599618182117455872,-23
599618182125142784,-42
599618182132829696,-59
599618182140516608,-64
599618182148203520,-69
599618182155890432,-69
599618182163577344,-62
599618182171264256,-59
599618182178951168,-59
599618182186638080,-54
599618182194324992,-52
599618182202011904,-45
599618182209698816,-31
599618182217385728,-35
599618182225072640,-47
599618182232759552,-38
599618182240446464,-23
599618182248133376,-28
599618182255820288,-28
599618182263507200,-14
599618182271194112,-11
599618182278881024,-19
599618182286567936,-21
599618182294254848,-9
599618182301941760,-7
599618182309628672,-16
599618182317315584,-7
599618182325002496,4
599618182332689408,-4
599618182340376320,-9
599618182348063232,-7
599618182355750144,-4
599618182363437056,-2
599618182371123968,2
599618182378810880,-2
599618182386497792,-7
599618182394184704,-7
599618182401871616,-4
599618182409558528,7
599618182417245440,9
599618182424932352,-7
599618182432619264,-11
599618182440306176,14
599618182447993088,9
599618182455680000,-16
599618182463366978,-2
599618182471054336,16
599618182478741632,0
599618182486429056,-2
599618182494116352,19
599618182501803648,9
599618182509490944,-21
599618182517178368,-11
599618182524865664,7
599618182532552960,-9
599618182540240256,-21
599618182547927680,0
599618182555614976,33
599618182563302272,38
599618182570989696,23
599618182578676992,16
599618182586364288,14
599618182594051584,11
599618182601739008,14
599618182609426304,2
599618182617113600,-2
599618182624800896,14
599618182632488320,19
599618182640175616,9
599618182647862912,0
599618182655550336,2
599618182663237632,-11
599618182670924928,-119
599618182678612224,-241
599618182686299648,-95
599618182693986944,394
599618182701674240,850
599618182709361536,726
599618182717048960,95
599618182724736256,-265
599618182732423552,-152
599618182740110976,-54
599618182747798272,-57
599618182755485568,-11
599618182763172864,7
599618182770860288,-11
599618182778547584,-2
599618182786234880,11
599618182793922176,11
599618182801609600,14
599618182809296896,19
599618182816984192,26
599618182824671616,31
599618182832358912,33
599618182840046208,35
599618182847733504,42
599618182855420928,52
599618182863108224,57
599618182870795520,66
599618182878482816,78
599618182886170240,81
599618182893857536,93
599618182901544832,114
599618182909232256,124
599618182916919552,126
599618182924606848,136
599618182932294144,133
599618182939981568,121
599618182947668864,124
599618182955356160,109
599618182963043456,59
599618182970730880,23
599618182978418176,2
599618182986105472,-33
599618182993792896,-57
599618183001480192,-57
599618183009167488,-69
599618183016854784,-85
599618183024542132,-81
599618183032229248,-64
599618183039916416,-62
599618183047603456,-66
599618183055290624,-66
599618183062977792,-62
599618183070664832,-54
599618183078352000,-50
599618183086039040,-50
599618183093726208,-42
599618183101413376,-40
599618183109100416,-38
599618183116787584,-31
599618183124474752,-26
599618183132161792,-23
599618183139848960,-23
599618183147536128,-19
599618183155223168,-16
599618183162910336,-19
599618183170597504,-11
599618183178284544,0
599618183185971712,-4
599618183193658752,-4
599618183201345920,-4
599618183209033088,-14
599618183216720128,-16
599618183224407296,-7
599618183232094464,2
599618183239781504,-4
599618183247468672,-11
599618183255155840,-4
599618183262842880,0
599618183270530048,-9
599618183278217088,-9
599618183285904256,-2
599618183293591424,2
599618183301278464,-4
599618183308965632,-2
599618183316652800,4
599618183324339840,-2
599618183332027008,-4
599618183339714176,7
599618183347401216,7
599618183355088384,0
599618183362775552,2
599618183370462592,4
599618183378149760,0
599618183385836800,-2
599618183393523968,2
599618183401211136,7
599618183408898176,2
599618183416585344,2
599618183424272512,7
599618183431959552,7
599618183439646720,4
599618183447333888,2
599618183455020928,7
599618183462708096,14
599618183470395136,7
599618183478082304,4
599618183485769472,9
599618183493456512,4
599618183501143680,-4
599618183508830848,-7
599618183516517888,-7
599618183524205056,-7
599618183531892224,4
599618183539579264,21
599618183547266432,31
599618183554953472,38
599618183562640640,33
599618183570327808,11
599618183578014848,4
599618183585702029,16
599618183593389184,21
599618183601076352,9
599618183608763392,7
599618183616450560,11
599618183624137728,11
599618183631824768,16
599618183639511936,16
599618183647198976,-19
599618183654886144,-121
599618183662573312,-224
599618183670260352,-78
599618183677947520,425
599618183685634688,907
599618183693321728,778
599618183701008896,117
599618183708696064,-257
599618183716383104,-143
599618183724070272,-26
599618183731757440,-14
599618183739444480,7
599618183747131648,2
599618183754818688,-14
599618183762505856,-9
599618183770193024,4
599618183777880064,11
599618183785567232,9
599618183793254400,16
599618183800941440,21
599618183808628608,19
599618183816315776,28
599618183824002816,40
599618183831689984,35
599618183839377024,40
599618183847064192,59
599618183854751360,69
599618183862438400,74
599618183870125568,83
599618183877812736,95
599618183885499776,112
599618183893186944,114
599618183900874112,117
599618183908561152,131
599618183916248320,133
599618183923935488,121
599618183931622528,119
599618183939309696,102
599618183946996736,74
599618183954683904,47
599618183962371072,14
599618183970058112,-21
599618183977745280,-40
599618183985432448,-47
599618183993119488,-54
599618184000806656,-64
599618184008493824,-69
599618184016180864,-66
599618184023868032,-62
599618184031555072,-54
599618184039242240,-54
599618184046929408,-59
599618184054616448,-50
599618184062303616,-42
599618184069990784,-47
599618184077677824,-45
599618184085364992,-28
599618184093052160,-28
599618184100739200,-40
599618184108426368,-35
599618184116113408,-21
599618184123800576,-19
599618184131487744,-21
599618184139174784,-14
599618184146861926,-9
599618184154549120,-9
599618184162236288,-9
599618184169923328,-7
599618184177610496,-9
599618184185297664,-11
599618184192984704,-4
599618184200671872,-2
599618184208358912,-11
599618184216046080,-9
599618184223733248,0
599618184231420288,0
599618184239107456,-7
599618184246794624,-4
599618184254481664,0
599618184262168832,0
599618184269856000,2
599618184277543040,-7
599618184285230208,-4
599618184292917376,7
599618184300604416,4
599618184308291584,-4
599618184315978624,-4
599618184323665792,0
599618184331352960,4
599618184339040000,0
599618184346727168,-2
599618184354414336,0
599618184362101376,2
599618184369788544,2
599618184377475712,4
599618184385162752,4
599618184392849920,0
599618184400536960,2
599618184408224128,2
599618184415911296,0
599618184423598336,2
599618184431285504,7
599618184438972672,4
599618184446659712,2
599618184454346880,4
599618184462034048,7
599618184469721088,7
599618184477408256,4
599618184485095424,7
599618184492782464,4
599618184500469632,-2
599618184508156672,-2
599618184515843840,-7
599618184523531008,-7
599618184531218048,9
599618184538905216,28
599618184546592384,33
599618184554279424,35
599618184561966592,31
599618184569653760,9
599618184577340800,-2
599618184585027968,7
599618184592715008,16
599618184600402176,7
599618184608089344,0
599618184615776384,9
599618184623463552,9
599618184631150720,7
599618184638837760,-2
599618184646524928,-57
599618184654212096,-186
599618184661899136,-222
599618184669586304,100
599618184677273472,699
599618184684960512,1000
599618184692647680,554
599618184700334720,-131
599618184708021827,-279
599618184715709056,-105
599618184723396224,-64
599618184731083264,-50
599618184738770432,-9
599618184746457600,-19
599618184754144640,-26
599618184761831808,-4
599618184769518848,2
599618184777206016,-2
599618184784893184,7
599618184792580224,16
599618184800267392,16
599618184807954560,16
599618184815641600,31
599618184823328768,35
599618184831015936,33
599618184838702976,42
599618184846390144,57
599618184854077312,64
599618184861764352,69
599618184869451520,81
599618184877138560,93
599618184884825728,107
599618184892512896,117
599618184900199936,124
599618184907887104,128
599618184915574272,133
599618184923261312,124
599618184930948480,114
599618184938635648,100
599618184946322688,69
599618184954009856,31
599618184961696896,0
599618184969384064,-31
599618184977071232,-54
599618184984758272,-59
599618184992445440,-66
599618185000132608,-76
599618185007819648,-78
599618185015506816,-76
599618185023193984,-71
599618185030881024,-66
599618185038568192,-64
599618185046255360,-64
599618185053942400,-59
599618185061629568,-57
599618185069316608,-52
599618185077003776,-52
599618185084690944,-47
599618185092377984,-40
599618185100065152,-38
599618185107752320,-40
599618185115439360,-31
599618185123126528,-26
599618185130813696,-28
599618185138500736,-23
599618185146187904,-16
599618185153874944,-21
599618185161562112,-23
599618185169249280,-16
599618185176936320,-14
599618185184623488,-16
599618185192310656,-11
599618185199997696,-14
599618185207684864,-16
599618185215372032,-11
599618185223059072,-11
599618185230746240,-14
599618185238433280,-11
599618185246120448,-9
599618185253807616,-16
599618185261494656,-11
599618185269181724,-2
599618185276868864,-7
599618185284556032,-11
599618185292243072,-7
599618185299930240,-4
599618185307617408,-4
599618185315304448,-2
599618185322991616,-2
599618185330678656,-4
599618185338365824,-4
599618185346052992,-2
599618185353740032,-2
599618185361427200,0
599618185369114368,-2
599618185376801408,-2
599618185384488576,0
599618185392175744,2
599618185399862784,0
599618185407549952,2
599618185415237120,4
599618185422924160,-2
599618185430611328,2
599618185438298368,9
599618185445985536,9
599618185453672704,4
599618185461359744,4
599618185469046912,0
599618185476734080,0
599618185484421120,4
599618185492108288,0
599618185499795456,-16
599618185507482496,-11
599618185515169664,11
599618185522856704,26
599618185530543872,28
599618185538231040,33
599618185545918080,35
599618185553605248,21
599618185561292416,4
599618185568979456,9
599618185576666624,16
599618185584353792,14
599618185592040832,11
599618185599728000,16
599618185607415168,16
599618185615102208,16
599618185622789376,9
599618185630476416,-59
599618185638163584,-203
599618185645850752,-200
599618185653537792,195
599618185661224960,826
599618185668912128,1058
599618185676599168,511
599618185684286336,-171
599618185691973504,-257
599618185699660544,-81
599618185707347712,-59
599618185715034752,-45
599618185722721920,-4
599618185730409088,-16
599618185738096128,-23
599618185745783296,-2
599618185753470464,0
599618185761157504,-2
599618185768844672,2
599618185776531840,9
599618185784218880,16
599618185791906048,21
599618185799593088,26
599618185807280256,33
599618185814967424,35
599618185822654464,45
599618185830341621,57
599618185838028800,62
599618185845715968,69
599618185853403008,85
599618185861090176,95
599618185868777344,102
599618185876464384,119
599618185884151552,136
599618185891838592,138
599618185899525760,133
599618185907212928,126
599618185914899968,117
599618185922587136,97
599618185930274304,74
599618185937961344,40
599618185945648512,2
599618185953335680,-28
599618185961022720,-45
599618185968709888,-57
599618185976397056,-66
599618185984084096,-74
599618185991771264,-74
599618185999458304,-71
599618186007145472,-64
599618186014832640,-62
599618186022519680,-64
599618186030206848,-64
599618186037894016,-57
599618186045581056,-54
599618186053268224,-57
599618186060955392,-50
599618186068642432,-40
599618186076329600,-40
599618186084016640,-38
599618186091703808,-28
599618186099390976,-23
599618186107078016,-23
599618186114765184,-19
599618186122452352,-16
599618186130139392,-16
599618186137826560,-14
599618186145513728,-9
599618186153200768,-9
599618186160887936,-11
599618186168575104,-11
599618186176262144,-11
599618186183949312,-11
599618186191636352,-11
599618186199323520,-14
599618186207010688,-11
599618186214697728,-7
599618186222384896,-9
599618186230072064,-9
599618186237759104,-2
599618186245446272,-2
599618186253133440,-9
599618186260820480,-9
599618186268507648,-4
599618186276194688,-7
599618186283881856,-7
599618186291569024,-4
599618186299256064,-4
599618186306943232,-2
599618186314630400,-2
599618186322317440,-2
599618186330004608,-2
599618186337691776,0
599618186345378816,-2
599618186353065984,0
599618186360753024,2
599618186368440192,2
599618186376127360,0
599618186383814400,0
599618186391501518,0
599618186399188736,0
599618186406875904,2
599618186414562944,2
599618186422250112,0
599618186429937280,-2
599618186437624320,-9
599618186445311488,-19
599618186452998528,-21
599618186460685696,-7
599618186468372864,11
599618186476059904,23
599618186483747072,33
599618186491434240,35
599618186499121280,26
599618186506808448,11
599618186514495616,7
599618186522182656,7
599618186529869824,7
599618186537556992,9
599618186545244032,9
599618186552931200,9
599618186560618240,9
599618186568305408,7
599618186575992576,-28
599618186583679616,-155
599618186591366784,-250
599618186599053952,-21
599618186606740992,580
599618186614428160,1074
599618186622115328,833
599618186629802368,71
599618186637489536,-296
599618186645176576,-148
599618186652863744,-50
599618186660550912,-62
599618186668237952,-33
599618186675925120,-19
599618186683612288,-28
599618186691299328,-19
599618186698986496,-7
599618186706673664,-9
599618186714360704,-4
599618186722047872,4
599618186729735040,7
599618186737422080,11
599618186745109248,16
599618186752796288,23
599618186760483456,31
599618186768170624,35
599618186775857664,42
599618186783544832,52
599618186791232000,59
599618186798919040,71
599618186806606208,83
599618186814293376,95
599618186821980416,109
599618186829667584,121
599618186837354624,126
599618186845041792,128
599618186852728960,131
599618186860416000,121
599618186868103168,102
599618186875790336,81
599618186883477376,52
599618186891164544,19
599618186898851712,-19
599618186906538752,-42
599618186914225920,-54
599618186921912960,-64
599618186929600128,-71
599618186937287296,-71
599618186944974336,-69
599618186952661415,-69
599618186960348928,-66
599618186968036480,-64
599618186975724032,-62
599618186983411584,-59
599618186991099136,-57
599618186998786688,-52
599618187006474112,-47
599618187014161664,-45
599618187021849216,-42
599618187029536768,-38
599618187037224320,-33
599618187044911872,-28
599618187052599424,-26
599618187060286976,-26
599618187067974528,-26
599618187075662080,-19
599618187083349504,-16
599618187091037056,-16
599618187098724608,-14
599618187106412160,-11
599618187114099712,-11
599618187121787264,-11
599618187129474816,-7
599618187137162368,-7
599618187144849920,-9
599618187152537472,-9
599618187160225024,-7
599618187167912448,-7
599618187175600000,-4
599618187183287552,-4
599618187190975104,-7
599618187198662656,-4
599618187206350208,-2
599618187214037760,-2
599618187221725312,-4
599618187229412864,-2
599618187237100416,0
599618187244787968,0
599618187252475392,0
599618187260162944,2
599618187267850496,2
599618187275538048,2
599618187283225600,2
599618187290913152,4
599618187298600704,2
599618187306288256,4
599618187313975808,7
599618187321663360,4
599618187329350784,4
599618187337038336,4
599618187344725888,4
599618187352413440,4
599618187360100992,4
599618187367788544,0
599618187375476096,-2
599618187383163648,-9
599618187390851200,-14
599618187398538752,0
599618187406226304,23
599618187413913728,33
599618187421601280,35
599618187429288832,38
599618187436976384,23
599618187444663936,4
599618187452351488,7
599618187460039040,11
599618187467726592,11
599618187475414144,11
599618187483101696,11
599618187490789248,11
599618187498476672,14
599618187506164224,9
599618187513851834,-50
599618187521538944,-186
599618187529226112,-226
599618187536913152,114
599618187544600320,769
599618187552287488,1132
599618187559974528,668
599618187567661696,-105
599618187575348736,-293
599618187583035904,-102
599618187590723072,-54
599618187598410112,-59
599618187606097280,-26
599618187613784448,-26
599618187621471488,-28
599618187629158656,-11
599618187636845824,-4
599618187644532864,-7
599618187652220032,0
599618187659907200,7
599618187667594240,11
599618187675281408,14
599618187682968448,19
599618187690655616,23
599618187698342784,33
599618187706029824,40
599618187713716992,50
599618187721404160,57
599618187729091200,66
599618187736778368,76
599618187744465536,88
599618187752152576,102
599618187759839744,117
599618187767526784,126
599618187775213952,128
599618187782901120,131
599618187790588160,128
599618187798275328,117
599618187805962496,97
599618187813649536,71
599618187821336704,38
599618187829023872,7
599618187836710912,-21
599618187844398080,-45
599618187852085248,-59
599618187859772288,-66
599618187867459456,-71
599618187875146496,-71
599618187882833664,-71
599618187890520832,-69
599618187898207872,-66
599618187905895040,-64
599618187913582208,-59
599618187921269248,-54
599618187928956416,-54
599618187936643584,-50
599618187944330624,-45
599618187952017792,-42
599618187959704832,-38
599618187967392000,-31
599618187975079168,-28
599618187982766208,-28
599618187990453376,-26
599618187998140544,-21
599618188005827584,-21
599618188013514752,-19
599618188021201920,-14
599618188028888960,-11
599618188036576128,-11
599618188044263168,-11
599618188051950336,-11
599618188059637504,-14
599618188067324544,-11
599618188075011731,-9
599618188082698880,-9
599618188090386048,-11
599618188098073088,-11
599618188105760256,-9
599618188113447424,-9
599618188121134464,-9
599618188128821632,-7
599618188136508672,-4
599618188144195840,-4
599618188151883008,-4
599618188159570048,-4
599618188167257216,-4
599618188174944384,-2
599618188182631424,0
599618188190318592,0
599618188198005760,0
599618188205692800,0
599618188213379968,0
599618188221067136,2
599618188228754176,0
599618188236441344,0
599618188244128384,2
599618188251815552,2
599618188259502720,2
599618188267189760,2
599618188274876928,4
599618188282564096,4
599618188290251136,2
599618188297938304,-4
599618188305625472,-11
599618188313312512,-19
599618188320999680,-14
599618188328686720,7
599618188336373888,26
599618188344061056,31
599618188351748096,35
599618188359435264,31
599618188367122432,9
599618188374809472,2
599618188382496640,7
599618188390183808,7
599618188397870848,4
599618188405558016,9
599618188413245184,9
599618188420932224,9
599618188428619392,11
599618188436306432,-4
599618188443993600,-97
599618188451680768,-229
599618188459367808,-148
599618188467054976,348
599618188474742144,991
599618188482429184,1079
599618188490116352,374
599618188497803520,-272
599618188505490560,-246
599618188513177728,-66
599618188520864768,-64
599618188528551936,-47
599618188536239104,-19
599618188543926144,-28
599618188551613312,-26
599618188559300480,-9
599618188566987520,-4
599618188574674688,-2
599618188582361856,4
599618188590048896,9
599618188597736064,14
599618188605423104,19
599618188613110272,28
599618188620797440,31
599618188628484480,35
599618188636171628,45
599618188643858816,52
599618188651545984,62
599618188659233024,74
599618188666920192,85
599618188674607360,97
599618188682294400,109
599618188689981568,119
599618188697668608,126
599618188705355776,131
599618188713042944,131
599618188720729984,124
599618188728417152,107
599618188736104320,88
599618188743791360,62
599618188751478528,31
599618188759165696,-2
599618188766852736,-28
599618188774539904,-45
599618188782227072,-57
599618188789914112,-66
599618188797601280,-74
599618188805288320,-74
599618188812975488,-71
599618188820662656,-71
599618188828349696,-66
599618188836036864,-62
599618188843724032,-59
599618188851411072,-54
599618188859098240,-52
599618188866785408,-47
599618188874472448,-42
599618188882159616,-42
599618188889846656,-35
599618188897533824,-31
599618188905220992,-31
599618188912908032,-31
599618188920595200,-26
599618188928282368,-23
599618188935969408,-23
599618188943656576,-21
599618188951343744,-16
599618188959030784,-16
599618188966717952,-19
599618188974405120,-21
599618188982092160,-16
599618188989779328,-16
599618188997466368,-16
599618189005153536,-16
599618189012840704,-19
599618189020527744,-16
599618189028214912,-14
599618189035902080,-14
599618189043589120,-14
599618189051276288,-16
599618189058963456,-16
599618189066650496,-11
599618189074337664,-9
599618189082024704,-11
599618189089711872,-11
599618189097399040,-9
599618189105086080,-7
599618189112773248,-9
599618189120460416,-7
599618189128147456,-4
599618189135834624,-4
599618189143521792,-4
599618189151208832,-2
599618189158896000,-2
599618189166583040,-7
599618189174270208,-4
599618189181957376,-2
599618189189644416,-2
599618189197331525,-4
599618189205018752,-7
599618189212705920,-9
599618189220392960,-14
599618189228080128,-23
599618189235767296,-19
599618189243454336,2
599618189251141504,21
599618189258828544,33
599618189266515712,38
599618189274202880,26
599618189281889920,2
599618189289577088,-2
599618189297264256,4
599618189304951296,4
599618189312638464,2
599618189320325632,2
599618189328012672,4
599618189335699840,4
599618189343387008,4
599618189351074048,-16
599618189358761216,-112
599618189366448256,-236
599618189374135424,-121
599618189381822592,398
599618189389509632,1012
599618189397196800,1027
599618189404883968,277
599618189412571008,-332
599618189420258176,-269
599618189427945344,-90
599618189435632384,-74
599618189443319552,-42
599618189451006592,-21
599618189458693760,-33
599618189466380928,-23
599618189474067968,-9
599618189481755136,-7
599618189489442304,-2
599618189497129344,4
599618189504816512,9
599618189512503680,16
599618189520190720,21
599618189527877888,23
599618189535565056,31
599618189543252096,40
599618189550939264,45
599618189558626304,54
599618189566313472,66
599618189574000640,78
599618189581687680,88
599618189589374848,100
599618189597062016,112
599618189604749056,121
599618189612436224,128
599618189620123392,131
599618189627810432,128
599618189635497600,121
599618189643184640,107
599618189650871808,88
599618189658558976,62
599618189666246016,26
599618189673933184,-7
599618189681620352,-33
599618189689307392,-52
599618189696994560,-66
599618189704681728,-74
599618189712368768,-78
599618189720055936,-81
599618189727742976,-78
599618189735430144,-74
599618189743117312,-71
599618189750804352,-69
599618189758491422,-64
599618189766178560,-57
599618189773865728,-52
599618189781552768,-50
599618189789239936,-47
599618189796927104,-45
599618189804614144,-40
599618189812301312,-35
599618189819988352,-33
599618189827675520,-31
599618189835362688,-26
599618189843049728,-26
599618189850736896,-28
599618189858424064,-26
599618189866111104,-21
599618189873798272,-21
599618189881485440,-23
599618189889172480,-21
599618189896859648,-21
599618189904546816,-19
599618189912233856,-16
599618189919921024,-16
599618189927608064,-19
599618189935295232,-19
599618189942982400,-16
599618189950669440,-14
599618189958356608,-16
599618189966043776,-19
599618189973730816,-14
599618189981417984,-11
599618189989105152,-14
599618189996792192,-14
599618190004479360,-11
599618190012166400,-9
599618190019853568,-9
599618190027540736,-9
599618190035227776,-7
599618190042914944,-4
599618190050602112,-4
599618190058289152,-7
599618190065976320,-7
599618190073663488,-7
599618190081350528,-7
599618190089037696,-11
599618190096724864,-19
599618190104411904,-23
599618190112099072,-14
599618190119786112,7
599618190127473280,19
599618190135160448,28
599618190142847488,35
599618190150534656,19
599618190158221824,-4
599618190165908864,-2
599618190173596032,4
599618190181283200,0
599618190188970240,0
599618190196657408,2
599618190204344448,2
599618190212031616,2
599618190219718784,4
599618190227405824,-28
599618190235092992,-145
599618190242780160,-234
599618190250467200,-2
599618190258154368,601
599618190265841536,1096
599618190273528576,816
599618190281215744,-26
599618190288902784,-410
599618190296589952,-224
599618190304277120,-100
599618190311964160,-69
599618190319651319,-11
599618190327338496,-14
599618190335025664,-26
599618190342712704,-4
599618190350399872,4
599618190358087040,0
599618190365774080,9
599618190373461248,19
599618190381148288,21
599618190388835456,26
599618190396522624,33
599618190404209664,35
599618190411896832,42
599618190419584000,54
599618190427271040,64
599618190434958208,71
599618190442645376,88
599618190450332416,105
599618190458019584,117
599618190465706752,124
599618190473393792,131
599618190481080960,140
599618190488768000,150
599618190496455168,155
599618190504142336,148
599618190511829376,136
599618190519516544,121
599618190527203712,100
599618190534890752,66
599618190542577920,21
599618190550265088,-19
599618190557952128,-38
599618190565639296,-54
599618190573326336,-74
599618190581013504,-83
599618190588700672,-81
599618190596387712,-76
599618190604074880,-76
599618190611762048,-76
599618190619449088,-74
599618190627136256,-71
599618190634823424,-64
599618190642510464,-59
599618190650197632,-57
599618190657884800,-54
599618190665571840,-52
599618190673259008,-45
599618190680946048,-40
599618190688633216,-35
599618190696320384,-33
599618190704007424,-35
599618190711694592,-31
599618190719381760,-26
599618190727068800,-23
599618190734755968,-23
599618190742443136,-28
599618190750130176,-31
599618190757817344,-23
599618190765504384,-23
599618190773191552,-31
599618190780878720,-31
599618190788565760,-21
599618190796252928,-16
599618190803940096,-26
599618190811627136,-31
599618190819314304,-26
599618190827001472,-19
599618190834688512,-23
599618190842375680,-28
599618190850062720,-26
599618190857749888,-28
599618190865437056,-35
599618190873124096,-33
599618190880811216,-16
599618190888498432,2
599618190896185600,9
599618190903872768,16
599618190911560064,9
599618190919247232,-9
599618190926934400,-19
599618190934621568,-14
599618190942308736,-7
599618190949995904,-4
599618190957683200,-7
599618190965370368,-11
599618190973057536,-9
599618190980744704,-4
599618190988431872,-14
599618190996119168,-74
599618191003806336,-210
599618191011493504,-226
599618191019180672,157
599618191026867840,821
599618191034555136,1077
599618191042242304,429
599618191049929472,-394
599618191057616640,-441
599618191065303808,-167
599618191072990976,-124
599618191080678272,-62
599618191088365440,14
599618191096052608,-16
599618191103739776,-16
599618191111426944,16
599618191119114240,9
599618191126801408,2
599618191134488576,21
599618191142175744,35
599618191149862912,33
599618191157550080,33
599618191165237376,42
599618191172924544,57
599618191180611712,66
599618191188298880,74
599618191195986048,81
599618191203673344,90
599618191211360512,107
599618191219047680,128
599618191226734848,138
599618191234422016,148
599618191242109184,169
599618191249796480,186
599618191257483648,181
599618191265170816,171
599618191272857984,169
599618191280545152,160
599618191288232448,133
599618191295919616,93
599618191303606784,42
599618191311293952,-4
599618191318981120,-38
599618191326668416,-59
599618191334355584,-83
599618191342042752,-102
599618191349729920,-100
599618191357417088,-100
599618191365104256,-102
599618191372791552,-90
599618191380478720,-78
599618191388165888,-83
599618191395853056,-85
599618191403540224,-74
599618191411227520,-66
599618191418914688,-66
599618191426601856,-62
599618191434289024,-54
599618191441976204,-52
599618191449663616,-50
599618191457351040,-42
599618191465038592,-40
599618191472726016,-38
599618191480413440,-33
599618191488100992,-31
599618191495788416,-33
599618191503475968,-33
599618191511163392,-31
599618191518850816,-35
599618191526538368,-33
599618191534225792,-28
