599623509248948024,46
599623509256635392,44
599623509264322816,44
599623509272010240,44
599623509279697536,46
599623509287384960,46
599623509295072384,46
599623509302759808,46
599623509310447232,46
599623509318134656,46
599623509325821952,46
599623509333509376,44
599623509341196800,46
599623509348884224,49
599623509356571648,46
599623509364258944,49
599623509371946368,51
599623509379633792,49
599623509387321216,49
599623509395008640,51
599623509402696064,51
599623509410383360,51
599623509418070784,51
599623509425758208,53
599623509433445632,53
599623509441133056,51
599623509448820352,51
599623509456507776,53
599623509464195200,53
599623509471882624,53
599623509479570048,53
599623509487257472,53
599623509494944768,53
599623509502632192,58
599623509510319616,53
599623509518007040,51
599623509525694464,65
599623509533381760,84
599623509541069184,84
599623509548756608,74
599623509556444032,74
599623509564131456,63
599623509571818752,44
599623509579506176,44
599623509587193600,56
599623509594881024,53
599623509602568448,51
599623509610255872,56
599623509617943168,56
599623509625630592,53
599623509633318016,49
599623509641005440,4
599623509648692864,-88
599623509656380160,-95
599623509664067584,140
599623509671755008,511
599623509679442432,651
599623509687129856,350
599623509694817280,-88
599623509702504576,-200
599623509710192000,-86
599623509717879424,-32
599623509725566848,9
599623509733254272,63
599623509740941568,49
599623509748628992,30
599623509756316416,51
599623509764003840,60
599623509771691264,53
599623509779378688,60
599623509787065984,67
599623509794753408,67
599623509802440832,70
599623509810128265,74
599623509817815680,77
599623509825503104,79
599623509833190528,84
599623509840877824,88
599623509848565248,93
599623509856252672,98
599623509863940096,102
599623509871627520,109
599623509879314944,116
599623509887002240,126
599623509894689664,135
599623509902377088,142
599623509910064512,149
599623509917751936,156
599623509925439232,156
599623509933126656,154
599623509940814080,147
599623509948501504,133
599623509956188928,109
599623509963876352,79
599623509971563648,49
599623509979251072,28
599623509986938496,14
599623509994625920,4
599623510002313344,0
599623510010000640,0
599623510017688064,0
599623510025375488,2
599623510033062912,4
599623510040750336,9
599623510048437760,11
599623510056125056,11
599623510063812480,11
599623510071499904,14
599623510079187328,16
599623510086874752,16
599623510094562048,18
599623510102249472,21
599623510109936896,23
599623510117624320,25
599623510125311744,28
599623510132999168,30
599623510140686464,30
599623510148373888,32
599623510156061312,35
599623510163748736,37
599623510171436160,39
599623510179123456,42
599623510186810880,44
599623510194498304,44
599623510202185728,44
599623510209873152,46
599623510217560576,46
599623510225247872,44
599623510232935296,44
599623510240622720,46
599623510248310144,44
599623510255997568,42
599623510263684864,44
599623510271372288,44
599623510279059712,42
599623510286747136,44
599623510294434560,44
599623510302121856,44
599623510309809280,46
599623510317496704,46
599623510325184128,46
599623510332871552,46
599623510340558976,49
599623510348246272,46
599623510355933696,46
599623510363621120,49
599623510371308510,49
599623510378996096,49
599623510386683648,49
599623510394371328,49
599623510402058880,51
599623510409746560,51
599623510417434112,49
599623510425121792,49
599623510432809344,49
599623510440497024,46
599623510448184576,46
599623510455872256,49
599623510463559808,49
599623510471247360,49
599623510478935040,51
599623510486622592,51
599623510494310272,51
599623510501997824,51
599623510509685504,51
599623510517373056,51
599623510525060736,51
599623510532748288,49
599623510540435840,51
599623510548123520,53
599623510555811072,51
599623510563498752,51
599623510571186304,53
599623510578873984,53
599623510586561536,53
599623510594249216,53
599623510601936768,53
599623510609624448,53
599623510617312000,53
599623510624999552,53
599623510632687232,53
599623510640374784,53
599623510648062464,53
599623510655750016,53
599623510663437696,53
599623510671125248,56
599623510678812928,51
599623510686500480,46
599623510694188032,58
599623510701875712,79
599623510709563264,84
599623510717250944,74
599623510724938496,74
599623510732626176,72
599623510740313728,53
599623510748001408,39
599623510755688960,49
599623510763376640,51
599623510771064192,46
599623510778751744,46
599623510786439424,51
599623510794126976,49
599623510801814656,46
599623510809502208,23
599623510817189888,-65
599623510824877440,-130
599623510832565120,14
599623510840252672,390
599623510847940224,705
599623510855627904,593
599623510863315456,114
599623510871003136,-191
599623510878690688,-130
599623510886378368,-42
599623510894065920,-28
599623510901753600,23
599623510909441152,37
599623510917128832,16
599623510924816384,28
599623510932504012,46
599623510940191232,42
599623510947878400,44
599623510955565568,53
599623510963252864,53
599623510970940032,56
599623510978627200,58
599623510986314368,60
599623510994001536,65
599623511001688704,70
599623511009376000,72
599623511017063168,77
599623511024750336,84
599623511032437504,88
599623511040124672,95
599623511047811968,102
599623511055499136,112
599623511063186304,119
599623511070873472,126
599623511078560640,135
599623511086247808,142
599623511093935104,147
599623511101622272,149
599623511109309440,147
599623511116996608,137
599623511124683776,121
599623511132371072,98
599623511140058240,67
599623511147745408,39
599623511155432576,23
599623511163119744,11
599623511170807040,2
599623511178494208,-2
599623511186181376,-2
599623511193868544,0
599623511201555712,2
599623511209242880,4
599623511216930176,7
599623511224617344,9
599623511232304512,11
599623511239991680,14
599623511247678848,14
599623511255366144,14
599623511263053312,16
599623511270740480,14
599623511278427648,14
599623511286114816,18
599623511293801984,21
599623511301489280,23
599623511309176448,23
599623511316863616,25
599623511324550784,30
599623511332237952,28
599623511339925248,28
599623511347612416,32
599623511355299584,37
599623511362986752,37
599623511370673920,35
599623511378361088,37
599623511386048384,37
599623511393735552,37
599623511401422720,37
599623511409109888,39
599623511416797056,39
599623511424484352,39
599623511432171520,37
599623511439858688,39
599623511447545856,42
599623511455233024,39
599623511462920192,39
599623511470607488,39
599623511478294656,39
599623511485981824,39
599623511493668992,39
599623511501356544,44
599623511509044096,44
599623511516731776,39
599623511524419328,39
599623511532107008,44
599623511539794560,42
599623511547482240,39
599623511555169792,42
599623511562857472,44
599623511570545024,39
599623511578232704,39
599623511585920256,42
599623511593607808,42
599623511601295488,42
599623511608983040,44
599623511616670720,44
599623511624358272,42
599623511632045952,42
599623511639733504,44
599623511647421184,44
599623511655108736,44
599623511662796288,44
599623511670483968,44
599623511678171520,46
599623511685859200,46
599623511693546752,44
599623511701234432,44
599623511708921984,46
599623511716609664,46
599623511724297216,46
599623511731984896,46
599623511739672448,46
599623511747360000,46
599623511755047680,46
599623511762735232,49
599623511770422912,46
599623511778110464,44
599623511785798144,44
599623511793485696,44
599623511801173376,42
599623511808860928,44
599623511816548480,46
599623511824236160,44
599623511831923712,42
599623511839611392,56
599623511847298944,74
599623511854986624,74
599623511862674176,65
599623511870361856,63
599623511878049408,53
599623511885737088,37
599623511893424640,37
599623511901112192,44
599623511908799872,44
599623511916487424,44
599623511924175104,46
599623511931862656,44
599623511939550336,44
599623511947237888,39
599623511954925568,-7
599623511962613120,-100
599623511970300672,-105
599623511977988352,140
599623511985675904,511
599623511993363584,637
599623512001051136,317
599623512008738816,-121
599623512016426368,-219
599623512024114048,-100
599623512031801600,-44
599623512039489280,7
599623512047176832,58
599623512054864498,39
599623512062551936,28
599623512070239360,51
599623512077926912,56
599623512085614336,51
599623512093301760,60
599623512100989312,65
599623512108676736,63
599623512116364288,65
599623512124051712,70
599623512131739136,74
599623512139426688,77
599623512147114112,79
599623512154801536,84
599623512162489088,88
599623512170176512,93
599623512177863936,98
599623512185551488,107
599623512193238912,116
599623512200926464,126
599623512208613888,133
599623512216301312,140
599623512223988864,149
599623512231676288,154
599623512239363712,156
599623512247051264,154
599623512254738688,147
599623512262426112,133
599623512270113664,107
599623512277801088,74
599623512285488512,42
599623512293176064,18
599623512300863488,7
599623512308551040,-4
599623512316238464,-11
599623512323925888,-9
599623512331613440,-9
599623512339300864,-9
599623512346988288,-4
599623512354675840,-2
599623512362363264,0
599623512370050688,2
599623512377738240,4
599623512385425664,4
599623512393113216,9
599623512400800640,11
599623512408488064,11
599623512416175616,11
599623512423863040,16
599623512431550464,18
599623512439238016,21
599623512446925440,23
599623512454612864,25
599623512462300416,28
599623512469987840,30
599623512477675392,32
599623512485362816,35
599623512493050240,37
599623512500737792,37
599623512508425216,35
599623512516112640,35
599623512523800192,39
599623512531487616,39
599623512539175040,39
599623512546862592,39
599623512554550016,42
599623512562237440,42
599623512569924992,42
599623512577612416,42
599623512585299968,44
599623512592987392,44
599623512600674816,42
599623512608362368,44
599623512616049826,44
599623512623736960,44
599623512631424128,44
599623512639111168,46
599623512646798336,44
599623512654485504,44
599623512662172544,46
599623512669859712,46
599623512677546752,46
599623512685233920,46
599623512692921088,44
599623512700608128,44
599623512708295296,46
599623512715982464,46
599623512723669504,44
599623512731356672,46
599623512739043840,46
599623512746730880,46
599623512754418048,46
599623512762105216,49
599623512769792256,49
599623512777479424,46
599623512785166464,46
599623512792853632,46
599623512800540800,46
599623512808227840,46
599623512815915008,46
599623512823602176,46
599623512831289216,49
599623512838976384,49
599623512846663552,49
599623512854350592,51
599623512862037760,49
599623512869724800,49
599623512877411968,51
599623512885099136,51
599623512892786176,49
599623512900473344,51
599623512908160512,51
599623512915847552,51
599623512923534720,51
599623512931221888,49
599623512938908928,51
599623512946596096,51
599623512954283264,44
599623512961970304,44
599623512969657472,63
599623512977344512,79
599623512985031680,79
599623512992718848,74
599623513000405888,74
599623513008093056,63
599623513015780224,44
599623513023467264,42
599623513031154432,51
599623513038841600,53
599623513046528640,49
599623513054215808,49
599623513061902848,51
599623513069590016,51
599623513077277184,42
599623513084964224,-7
599623513092651392,-102
599623513100338560,-95
599623513108025600,163
599623513115712768,548
599623513123399936,689
599623513131086976,364
599623513138774144,-91
599623513146461184,-196
599623513154148352,-77
599623513161835520,-32
599623513169522560,0
599623513177209723,44
599623513184897280,30
599623513192584832,21
599623513200272384,44
599623513207959936,49
599623513215647488,46
599623513223335040,51
599623513231022464,56
599623513238710016,58
599623513246397568,60
599623513254085120,63
599623513261772672,63
599623513269460224,67
599623513277147776,72
599623513284835328,74
599623513292522880,77
599623513300210432,84
599623513307897856,91
599623513315585408,95
599623513323272960,102
599623513330960512,109
599623513338648064,119
599623513346335616,128
599623513354023168,135
599623513361710720,140
599623513369398272,144
599623513377085824,142
599623513384773376,137
599623513392460800,128
599623513400148352,107
599623513407835904,79
599623513415523456,51
599623513423211008,30
599623513430898560,16
599623513438586112,4
599623513446273664,-2
599623513453961216,-2
599623513461648768,-2
599623513469336320,-2
599623513477023744,2
599623513484711296,4
599623513492398848,7
599623513500086400,9
599623513507773952,11
599623513515461504,14
599623513523149056,14
599623513530836608,16
599623513538524160,16
599623513546211712,18
599623513553899136,18
599623513561586688,21
599623513569274240,25
599623513576961792,25
599623513584649344,28
599623513592336896,28
599623513600024448,30
599623513607712000,32
599623513615399552,32
599623513623087104,35
599623513630774656,37
599623513638462080,37
599623513646149632,37
599623513653837184,39
599623513661524736,39
599623513669212288,39
599623513676899840,42
599623513684587392,42
599623513692274944,39
599623513699962496,39
599623513707650048,42
599623513715337472,42
599623513723025024,42
599623513730712576,42
599623513738400138,42
599623513746087680,42
599623513753775232,44
599623513761462784,44
599623513769150336,44
599623513776837888,44
599623513784525440,42
599623513792212864,39
599623513799900416,37
599623513807587968,39
599623513815275520,42
599623513822963072,39
599623513830650624,39
599623513838338176,39
599623513846025728,42
599623513853713280,42
599623513861400832,42
599623513869088256,44
599623513876775808,42
599623513884463360,42
599623513892150912,44
599623513899838464,44
599623513907526016,44
599623513915213568,44
599623513922901120,44
599623513930588672,44
599623513938276224,46
599623513945963776,46
599623513953651200,46
599623513961338752,46
599623513969026304,46
599623513976713856,46
599623513984401408,46
599623513992088960,49
599623513999776512,49
599623514007464064,46
599623514015151616,46
599623514022839168,51
599623514030526720,49
599623514038214144,49
599623514045901696,51
599623514053589248,51
599623514061276800,51
599623514068964352,51
599623514076651904,51
599623514084339456,51
599623514092027008,51
599623514099714560,49
599623514107402112,51
599623514115089536,51
599623514122777088,49
599623514130464640,46
599623514138152192,39
599623514145839744,39
599623514153527296,60
599623514161214848,79
599623514168902400,79
599623514176589952,74
599623514184277504,72
599623514191965056,65
599623514199652480,49
599623514207340032,39
599623514215027584,46
599623514222715136,51
599623514230402688,49
599623514238090240,49
599623514245777792,49
599623514253465344,49
599623514261152896,49
599623514268840448,23
599623514276527872,-60
599623514284215424,-137
599623514291902976,-14
599623514299590553,355
599623514307278080,693
599623514314965632,621
599623514322653184,151
599623514330340736,-189
599623514338028288,-149
599623514345715840,-56
599623514353403264,-37
599623514361090816,14
599623514368778368,32
599623514376465920,7
599623514384153472,18
599623514391841024,37
599623514399528576,35
599623514407216128,37
599623514414903680,46
599623514422591232,46
599623514430278656,49
599623514437966208,53
599623514445653760,58
599623514453341312,60
599623514461028864,65
599623514468716416,70
599623514476403968,74
599623514484091520,79
599623514491779072,84
599623514499466624,91
599623514507154176,100
599623514514841600,107
599623514522529152,116
599623514530216704,126
599623514537904256,133
599623514545591808,140
599623514553279360,144
599623514560966912,147
599623514568654464,142
599623514576342016,135
599623514584029568,121
599623514591717120,98
599623514599404544,70
599623514607092096,42
599623514614779648,18
599623514622467200,4
599623514630154752,-4
599623514637842304,-9
599623514645529856,-9
599623514653217408,-9
599623514660904960,-7
599623514668592512,-4
599623514676279936,-2
599623514683967488,0
599623514691655040,2
599623514699342592,4
599623514707030144,4
599623514714717696,7
599623514722405248,9
599623514730092800,9
599623514737780352,14
599623514745467904,16
599623514753155456,16
599623514760842880,16
599623514768530432,21
599623514776217984,23
599623514783905536,23
599623514791593088,23
599623514799280640,23
599623514806968192,25
599623514814655744,28
599623514822343296,28
599623514830030848,30
599623514837718400,30
599623514845405824,30
599623514853093376,30
599623514860780972,32
599623514868468096,32
599623514876155264,32
599623514883842432,35
599623514891529728,35
599623514899216896,32
599623514906904064,32
599623514914591232,32
599623514922278400,35
599623514929965568,32
599623514937652864,32
599623514945340032,37
599623514953027200,37
599623514960714368,35
599623514968401536,35
599623514976088832,37
599623514983776000,37
599623514991463168,37
599623514999150336,37
599623515006837504,37
599623515014524672,37
599623515022211968,39
599623515029899136,39
599623515037586304,39
599623515045273472,39
599623515052960640,39
599623515060647936,42
599623515068335104,42
599623515076022272,42
599623515083709440,42
599623515091396608,44
599623515099083904,44
599623515106771072,42
599623515114458240,42
599623515122145408,42
599623515129832576,42
599623515137519744,44
599623515145207040,44
599623515152894208,44
599623515160581376,44
599623515168268544,44
599623515175955712,44
599623515183643008,42
599623515191330176,44
599623515199017344,46
599623515206704512,44
599623515214391680,44
599623515222078848,46
599623515229766144,46
599623515237453312,44
599623515245140480,49
599623515252827648,49
599623515260514816,44
599623515268202112,39
599623515275889280,46
599623515283576448,65
599623515291263616,77
599623515298950784,72
599623515306637952,67
599623515314325248,63
599623515322012416,51
599623515329699584,35
599623515337386752,39
599623515345073920,49
599623515352761216,46
599623515360448384,44
599623515368135552,44
599623515375822720,49
599623515383509888,49
599623515391197184,32
599623515398884352,-28
599623515406571520,-116
599623515414258688,-67
599623515421945956,233
599623515429633408,579
599623515437320832,588
599623515445008384,184
599623515452695808,-186
599623515460383232,-186
599623515468070784,-74
599623515475758208,-35
599623515483445760,28
599623515491133184,65
599623515498820608,35
599623515506508160,35
599623515514195584,58
599623515521883008,56
599623515529570560,53
599623515537257984,63
599623515544945408,63
599623515552632960,65
599623515560320384,70
599623515568007936,74
599623515575695360,74
599623515583382784,79
599623515591070336,84
599623515598757760,88
599623515606445184,93
599623515614132736,100
599623515621820160,105
599623515629507584,112
599623515637195136,121
599623515644882560,128
599623515652569984,135
599623515660257536,142
599623515667944960,151
599623515675632512,156
599623515683319936,156
599623515691007360,154
599623515698694912,144
599623515706382336,133
599623515714069760,109
599623515721757312,77
599623515729444736,46
599623515737132160,25
599623515744819712,11
599623515752507136,2
599623515760194688,-4
599623515767882112,-4
599623515775569536,-4
599623515783257088,-2
599623515790944512,2
599623515798631936,4
599623515806319488,4
599623515814006912,2
599623515821694336,7
599623515829381888,9
599623515837069312,9
599623515844756864,11
599623515852444288,14
599623515860131712,16
599623515867819264,16
599623515875506688,18
599623515883194112,23
599623515890881664,25
599623515898569088,25
599623515906256512,28
599623515913944064,30
599623515921631488,32
599623515929318912,32
599623515937006464,32
599623515944693888,35
599623515952381440,35
599623515960068864,37
599623515967756288,37
599623515975443840,37
599623515983131284,37
599623515990818560,39
599623515998505856,39
599623516006193280,37
599623516013880576,39
599623516021567872,42
599623516029255168,39
599623516036942592,39
599623516044629888,39
599623516052317184,37
599623516060004480,37
599623516067691904,39
599623516075379200,39
599623516083066496,39
599623516090753920,39
599623516098441216,39
599623516106128512,42
599623516113815808,42
599623516121503232,42
599623516129190528,42
599623516136877824,39
599623516144565120,39
599623516152252544,42
599623516159939840,44
599623516167627136,44
599623516175314560,42
599623516183001856,44
599623516190689152,44
599623516198376448,44
599623516206063872,44
599623516213751168,44
599623516221438464,44
599623516229125760,44
599623516236813184,46
599623516244500480,46
599623516252187776,44
599623516259875200,46
599623516267562496,46
599623516275249792,44
599623516282937088,46
599623516290624512,46
599623516298311808,46
599623516305999104,46
599623516313686400,44
599623516321373824,39
599623516329061120,44
599623516336748416,46
599623516344435840,44
599623516352123136,44
599623516359810432,46
599623516367497728,46
599623516375185152,44
599623516382872448,46
599623516390559744,49
599623516398247040,44
599623516405934464,39
599623516413621760,44
599623516421309056,63
599623516428996480,77
599623516436683776,72
599623516444371072,67
599623516452058368,67
599623516459745792,53
599623516467433088,37
599623516475120384,37
599623516482807680,46
599623516490495104,46
599623516498182400,44
599623516505869696,46
599623516513557120,49
599623516521244416,46
599623516528931712,35
599623516536619008,-23
599623516544306442,-119
599623516551993728,-88
599623516559681024,205
599623516567368448,595
599623516575055744,698
599623516582743040,329
599623516590430336,-114
599623516598117760,-182
599623516605805056,-65
599623516613492352,-35
599623516621179648,0
599623516628867072,42
599623516636554368,23
599623516644241664,16
599623516651929088,42
599623516659616384,44
599623516667303680,42
599623516674990976,49
599623516682678400,53
599623516690365696,53
599623516698052992,58
599623516705740288,60
599623516713427712,63
599623516721115008,67
599623516728802304,72
599623516736489728,77
599623516744177024,79
599623516751864320,86
599623516759551616,93
599623516767239040,98
599623516774926336,105
599623516782613632,112
599623516790300928,119
599623516797988352,128
599623516805675648,137
599623516813362944,142
599623516821050368,142
599623516828737664,140
599623516836424960,135
599623516844112256,128
599623516851799680,109
599623516859486976,81
599623516867174272,53
599623516874861568,30
599623516882548992,14
599623516890236288,2
599623516897923584,-2
599623516905611008,-4
599623516913298304,-4
599623516920985600,-4
599623516928672896,0
599623516936360320,2
599623516944047616,4
599623516951734912,7
599623516959422208,9
599623516967109632,11
599623516974796928,11
599623516982484224,14
599623516990171648,16
599623516997858944,16
599623517005546240,18
599623517013233536,18
599623517020920960,21
599623517028608256,23
599623517036295552,25
599623517043982848,28
599623517051670272,30
599623517059357568,30
599623517067044864,30
599623517074732288,32
599623517082419584,35
599623517090106880,35
599623517097794176,35
599623517105481596,35
599623517113169024,37
599623517120856448,37
599623517128544000,37
599623517136231424,37
599623517143918848,39
599623517151606400,39
599623517159293824,35
599623517166981376,35
599623517174668800,39
599623517182356224,39
599623517190043776,37
599623517197731200,39
599623517205418624,39
599623517213106176,39
599623517220793600,37
599623517228481024,42
599623517236168576,42
599623517243856000,42
599623517251543552,42
599623517259230976,42
599623517266918400,42
599623517274605952,42
599623517282293376,42
599623517289980800,42
599623517297668352,42
599623517305355776,42
599623517313043200,42
599623517320730752,39
599623517328418176,39
599623517336105600,42
599623517343793152,42
599623517351480576,42
599623517359168128,42
599623517366855552,42
599623517374542976,42
599623517382230528,44
599623517389917952,44
599623517397605376,44
599623517405292928,44
599623517412980352,44
599623517420667776,46
599623517428355328,42
599623517436042752,44
599623517443730304,46
599623517451417728,44
599623517459105152,44
599623517466792704,46
599623517474480128,44
599623517482167552,44
599623517489855104,46
599623517497542528,46
599623517505229952,46
599623517512917504,46
599623517520604928,46
599623517528292480,46
599623517535979904,46
599623517543667328,46
599623517551354880,44
599623517559042304,44
599623517566729728,46
599623517574417280,44
599623517582104704,37
599623517589792128,42
599623517597479680,58
599623517605167104,72
599623517612854656,72
599623517620542080,67
599623517628229504,67
599623517635917056,60
599623517643604480,42
599623517651291904,35
599623517658979456,44
599623517666666928,49
599623517674354048,46
599623517682041216,46
599623517689728384,46
599623517697415680,46
599623517705102848,42
599623517712790016,9
599623517720477184,-79
599623517728164352,-133
599623517735851520,49
599623517743538816,436
599623517751225984,686
599623517758913152,492
599623517766600320,14
599623517774287488,-221
599623517781974784,-130
599623517789661952,-51
599623517797349120,-21
599623517805036288,37
599623517812723456,39
599623517820410624,16
599623517828097920,32
599623517835785088,46
599623517843472256,42
599623517851159424,44
599623517858846592,51
599623517866533888,53
599623517874221056,56
599623517881908224,60
599623517889595392,63
599623517897282560,67
599623517904969856,70
599623517912657024,74
599623517920344192,81
599623517928031360,86
599623517935718528,91
599623517943405696,98
599623517951092992,105
599623517958780160,114
599623517966467328,123
599623517974154496,133
599623517981841664,140
599623517989528960,147
599623517997216128,149
599623518004903296,151
599623518012590464,149
599623518020277632,137
599623518027964800,121
599623518035652096,98
599623518043339264,67
599623518051026432,37
599623518058713600,16
599623518066400768,2
599623518074088064,-4
599623518081775232,-11
599623518089462400,-11
599623518097149568,-9
599623518104836736,-7
599623518112523904,-4
599623518120211200,-2
599623518127898368,0
599623518135585536,2
599623518143272704,4
599623518150959872,4
599623518158647168,7
599623518166334336,9
599623518174021504,9
599623518181708672,11
599623518189395840,14
599623518197083008,16
599623518204770304,18
599623518212457472,18
599623518220144640,21
599623518227831908,25
599623518235519104,28
599623518243206272,28
599623518250893440,28
599623518258580736,28
599623518266267904,28
599623518273955072,30
599623518281642240,32
599623518289329408,30
599623518297016576,30
599623518304703872,32
599623518312391040,35
599623518320078208,35
599623518327765376,30
599623518335452544,30
599623518343139840,32
599623518350827008,32
599623518358514176,32
599623518366201344,32
599623518373888512,35
599623518381575808,35
599623518389262976,35
599623518396950144,35
599623518404637312,37
599623518412324480,37
599623518420011648,37
599623518427698944,37
599623518435386112,39
599623518443073280,39
599623518450760448,39
599623518458447616,37
599623518466134912,39
599623518473822080,42
599623518481509248,42
599623518489196416,42
599623518496883584,42
599623518504570752,42
599623518512258048,42
599623518519945216,44
599623518527632384,44
599623518535319552,42
599623518543006720,44
599623518550694016,46
599623518558381184,44
599623518566068352,44
599623518573755520,46
599623518581442688,46
599623518589129856,46
599623518596817152,46
599623518604504320,46
599623518612191488,46
599623518619878656,49
599623518627565824,46
599623518635253120,46
599623518642940288,49
599623518650627456,49
599623518658314624,42
599623518666001792,46
599623518673689088,67
599623518681376256,84
599623518689063424,79
599623518696750592,74
599623518704437760,72
599623518712124928,58
599623518719812224,42
599623518727499392,44
599623518735186560,51
599623518742873728,51
599623518750560896,49
599623518758248192,49
599623518765935360,51
599623518773622528,51
599623518781309696,42
599623518788996896,-9
599623518796684288,-102
599623518804371712,-95
599623518812059264,163
599623518819746688,532
599623518827434112,644
599623518835121664,312
599623518842809088,-116
599623518850496640,-203
599623518858184064,-93
599623518865871488,-46
599623518873559040,2
599623518881246464,53
599623518888933888,35
599623518896621440,21
599623518904308864,44
599623518911996288,49
599623518919683840,44
599623518927371264,51
599623518935058816,58
599623518942746240,58
599623518950433664,60
599623518958121216,65
599623518965808640,67
599623518973496064,70
599623518981183616,77
599623518988871040,79
599623518996558464,84
599623519004246016,88
599623519011933440,93
599623519019620864,100
599623519027308416,107
599623519034995840,116
599623519042683392,126
599623519050370816,133
599623519058058240,142
599623519065745792,147
599623519073433216,151
599623519081120640,151
599623519088808192,144
599623519096495616,133
599623519104183040,112
599623519111870592,81
599623519119558016,51
599623519127245568,25
599623519134932992,7
599623519142620416,-2
599623519150307968,-9
599623519157995392,-11
599623519165682816,-11
599623519173370368,-9
599623519181057792,-7
599623519188745216,-2
599623519196432768,-2
599623519204120192,0
599623519211807744,2
599623519219495168,4
599623519227182592,4
599623519234870144,4
599623519242557568,9
599623519250244992,9
599623519257932544,11
599623519265619968,16
599623519273307392,16
599623519280994944,16
599623519288682368,18
599623519296369792,21
599623519304057344,25
599623519311744768,28
599623519319432320,28
599623519327119744,28
599623519334807168,28
599623519342494720,28
599623519350182224,30
599623519357869568,30
599623519365556864,30
599623519373244288,32
599623519380931584,32
599623519388618880,32
599623519396306176,32
599623519403993600,32
599623519411680896,32
599623519419368192,35
599623519427055488,35
599623519434742912,32
599623519442430208,32
599623519450117504,32
599623519457804928,35
599623519465492224,32
599623519473179520,32
599623519480866816,35
599623519488554240,37
599623519496241536,35
599623519503928832,35
599623519511616128,37
599623519519303552,39
599623519526990848,37
599623519534678144,37
599623519542365568,39
599623519550052864,39
599623519557740160,39
599623519565427456,39
599623519573114880,42
599623519580802176,42
599623519588489472,39
599623519596176768,42
599623519603864192,44
599623519611551488,42
599623519619238784,39
599623519626926208,42
599623519634613504,44
599623519642300800,44
599623519649988096,44
599623519657675520,44
599623519665362816,42
599623519673050112,42
599623519680737408,44
599623519688424832,42
599623519696112128,42
599623519703799424,44
599623519711486848,44
599623519719174144,42
599623519726861440,44
599623519734548736,44
599623519742236160,44
599623519749923456,44
599623519757610752,44
599623519765298048,44
599623519772985472,44
599623519780672768,44
599623519788360064,44
599623519796047488,44
599623519803734784,44
599623519811422080,46
599623519819109376,44
599623519826796800,44
599623519834484096,44
599623519842171392,42
599623519849858688,39
599623519857546112,39
599623519865233408,35
599623519872920704,39
599623519880608128,60
599623519888295424,72
599623519895982720,65
599623519903670016,63
599623519911357382,65
599623519919044736,56
599623519926732032,35
599623519934419456,30
599623519942106752,42
599623519949794048,44
599623519957481344,39
599623519965168768,39
599623519972856064,42
599623519980543360,39
599623519988230656,35
599623519995918080,-7
599623520003605376,-107
599623520011292672,-133
599623520018980096,95
599623520026667392,499
599623520034354688,726
599623520042041984,476
599623520049729408,-11
599623520057416704,-203
599623520065104000,-102
599623520072791296,-49
599623520080478720,-23
599623520088166016,25
599623520095853312,18
599623520103540736,4
599623520111228032,25
599623520118915328,35
599623520126602624,30
599623520134290048,37
599623520141977344,44
599623520149664640,44
599623520157351936,46
599623520165039360,51
599623520172726656,56
599623520180413952,56
599623520188101376,58
599623520195788672,63
599623520203475968,70
599623520211163264,77
599623520218850688,84
599623520226537984,88
599623520234225280,95
599623520241912576,102
599623520249600000,109
599623520257287296,116
599623520264974592,126
599623520272662016,133
599623520280349312,135
599623520288036608,137
599623520295723904,135
599623520303411328,130
599623520311098624,116
599623520318785920,93
599623520326473216,67
599623520334160640,39
599623520341847936,18
599623520349535232,2
599623520357222656,-7
599623520364909952,-9
599623520372597248,-11
599623520380284544,-9
599623520387971968,-9
599623520395659264,-7
599623520403346560,-4
599623520411033856,0
599623520418721280,2
599623520426408576,2
599623520434095872,4
599623520441783296,4
599623520449470592,7
599623520457157888,9
599623520464845184,11
599623520472532536,11
599623520480219904,11
599623520487907328,16
599623520495594880,18
599623520503282304,21
599623520510969728,21
599623520518657280,21
599623520526344704,21
599623520534032256,23
599623520541719680,25
599623520549407104,25
599623520557094656,25
599623520564782080,28
599623520572469504,28
599623520580157056,30
599623520587844480,30
599623520595531904,30
599623520603219456,30
599623520610906880,30
599623520618594432,30
599623520626281856,32
599623520633969280,32
599623520641656832,30
599623520649344256,32
599623520657031680,32
599623520664719232,35
599623520672406656,35
599623520680094080,32
599623520687781632,35
599623520695469056,37
599623520703156480,35
599623520710844032,32
599623520718531456,35
599623520726219008,37
599623520733906432,37
599623520741593856,35
599623520749281408,37
599623520756968832,39
599623520764656256,37
599623520772343808,35
599623520780031232,37
599623520787718656,37
599623520795406208,37
599623520803093632,37
599623520810781184,39
599623520818468608,39
599623520826156032,37
599623520833843584,39
599623520841531008,39
599623520849218432,39
599623520856905984,35
599623520864593408,35
599623520872280832,39
599623520879968384,37
599623520887655808,35
599623520895343360,37
599623520903030784,37
599623520910718208,37
599623520918405760,39
599623520926093184,39
599623520933780608,39
599623520941468160,39
599623520949155584,39
599623520956843008,39
599623520964530560,42
599623520972217984,39
599623520979905536,37
599623520987592960,39
599623520995280384,42
599623521002967936,39
599623521010655360,35
599623521018342784,44
599623521026030336,63
599623521033717868,70
599623521041405056,63
599623521049092224,60
599623521056779392,60
599623521064466688,42
599623521072153856,28
599623521079841024,32
599623521087528192,39
599623521095215360,35
599623521102902528,35
599623521110589824,39
599623521118276992,37
599623521125964160,35
599623521133651328,25
599623521141338496,-32
599623521149025792,-130
599623521156712960,-91
599623521164400128,205
599623521172087296,567
599623521179774464,623
599623521187461632,242
599623521195148928,-168
599623521202836096,-212
599623521210523264,-91
599623521218210432,-46
599623521225897600,7
599623521233584896,49
599623521241272064,25
599623521248959232,18
599623521256646400,44
599623521264333568,46
599623521272020864,42
599623521279708032,49
599623521287395200,53
599623521295082368,53
599623521302769536,58
599623521310456704,63
599623521318144000,65
599623521325831168,67
599623521333518336,72
599623521341205504,77
599623521348892672,81
599623521356579968,86
599623521364267136,91
599623521371954304,98
599623521379641472,105
599623521387328640,114
599623521395015808,123
599623521402703104,130
599623521410390272,140
599623521418077440,144
599623521425764608,149
599623521433451776,147
599623521441139072,142
599623521448826240,130
599623521456513408,109
599623521464200576,81
599623521471887744,49
599623521479574912,21
599623521487262208,4
599623521494949376,-7
599623521502636544,-14
599623521510323712,-16
599623521518010880,-14
599623521525698176,-11
599623521533385344,-9
599623521541072512,-7
599623521548759680,-4
599623521556446848,0
599623521564134016,0
599623521571821312,2
599623521579508480,2
599623521587195648,4
599623521594882848,7
599623521602569984,9
599623521610257152,9
599623521617944320,14
599623521625631616,14
599623521633318784,14
599623521641005952,16
599623521648693120,18
599623521656380288,21
599623521664067456,23
599623521671754752,25
599623521679441920,25
599623521687129088,28
599623521694816256,30
599623521702503424,30
599623521710190720,30
599623521717877888,28
599623521725565056,30
599623521733252224,32
599623521740939392,32
599623521748626688,32
599623521756313856,32
599623521764001024,35
599623521771688192,35
599623521779375360,35
599623521787062528,35
599623521794749824,37
599623521802436992,37
599623521810124160,37
599623521817811328,37
599623521825498496,39
599623521833185792,39
599623521840872960,37
599623521848560128,37
599623521856247296,37
599623521863934464,37
599623521871621632,35
599623521879308928,35
599623521886996096,37
599623521894683264,37
599623521902370432,37
599623521910057600,37
599623521917744896,39
599623521925432064,39
599623521933119232,39
599623521940806400,39
599623521948493568,42
599623521956180736,39
599623521963868032,39
599623521971555200,39
599623521979242368,42
599623521986929536,42
599623521994616704,39
599623522002304000,42
599623522009991168,42
599623522017678336,42
599623522025365504,42
599623522033052672,44
599623522040739968,44
599623522048427136,42
599623522056114304,42
599623522063801472,44
599623522071488640,42
599623522079175808,42
599623522086863104,44
599623522094550272,44
599623522102237440,42
599623522109924608,44
599623522117611776,46
599623522125299072,44
599623522132986240,37
599623522140673408,39
599623522148360576,58
599623522156047836,72
599623522163735296,67
599623522171422720,60
599623522179110272,63
599623522186797696,51
599623522194485120,32
599623522202172672,32
599623522209860096,42
599623522217547648,39
599623522225235072,35
599623522232922496,37
599623522240610048,37
599623522248297472,37
599623522255984896,32
599623522263672448,-16
599623522271359872,-112
599623522279047296,-116
599623522286734848,128
599623522294422272,513
599623522302109824,677
599623522309797248,380
599623522317484672,-77
599623522325172224,-210
599623522332859648,-98
599623522340547072,-44
599623522348234624,-11
599623522355922048,35
599623522363609472,21
599623522371297024,7
599623522378984448,28
599623522386671872,37
599623522394359424,32
599623522402046848,39
599623522409734400,44
599623522417421824,44
599623522425109248,49
599623522432796800,51
599623522440484224,53
599623522448171648,58
599623522455859200,63
599623522463546624,65
599623522471234048,70
599623522478921600,74
599623522486609024,81
599623522494296576,86
599623522501984000,93
599623522509671424,102
599623522517358976,109
599623522525046400,119
599623522532733824,126
599623522540421376,135
599623522548108800,140
599623522555796224,140
599623522563483776,137
599623522571171200,130
599623522578858752,114
599623522586546176,88
599623522594233600,58
599623522601921152,32
599623522609608576,14
599623522617296000,0
599623522624983552,-7
599623522632670976,-11
599623522640358400,-11
599623522648045952,-14
599623522655733376,-11
599623522663420800,-4
599623522671108352,-2
599623522678795776,-2
599623522686483328,0
599623522694170752,2
599623522701858176,4
599623522709545728,4
599623522717233164,7
599623522724920448,7
599623522732607744,9
599623522740295168,11
599623522747982464,14
599623522755669760,14
599623522763357056,16
599623522771044480,18
599623522778731776,21
599623522786419072,21
599623522794106368,21
599623522801793792,23
599623522809481088,23
599623522817168384,25
599623522824855808,25
599623522832543104,25
599623522840230400,28
599623522847917696,30
599623522855605120,30
599623522863292416,28
599623522870979712,28
599623522878667008,28
599623522886354432,28
599623522894041728,28
599623522901729024,28
599623522909416448,30
599623522917103744,30
599623522924791040,30
599623522932478336,30
599623522940165760,30
599623522947853056,30
599623522955540352,32
599623522963227648,32
599623522970915072,32
599623522978602368,32
599623522986289664,35
599623522993977088,35
599623523001664384,35
599623523009351680,35
599623523017038976,35
599623523024726400,35
599623523032413696,37
599623523040100992,35
599623523047788288,35
599623523055475712,37
599623523063163008,37
599623523070850304,37
599623523078537728,37
599623523086225024,39
599623523093912320,37
599623523101599616,37
599623523109287040,37
599623523116974336,39
599623523124661632,39
599623523132348928,39
599623523140036352,39
599623523147723648,39
599623523155410944,39
599623523163098368,39
599623523170785664,42
599623523178472960,42
599623523186160256,39
599623523193847680,39
599623523201534976,42
599623523209222272,42
599623523216909568,39
599623523224596992,42
599623523232284288,42
599623523239971584,39
599623523247659008,39
599623523255346304,42
599623523263033600,42
599623523270720896,42
599623523278408322,42
599623523286095616,42
599623523293782912,42
599623523301470336,44
599623523309157632,44
599623523316844928,42
599623523324532224,42
599623523332219648,42
599623523339906944,37
599623523347594240,32
599623523355281536,49
599623523362968960,70
599623523370656256,65
599623523378343552,56
599623523386030976,56
599623523393718272,56
599623523401405568,37
599623523409092864,23
599623523416780288,30
599623523424467584,37
599623523432154880,35
599623523439842176,35
599623523447529600,37
599623523455216896,35
599623523462904192,35
599623523470591616,14
599623523478278912,-67
599623523485966208,-149
599623523493653504,-37
599623523501340928,322
599623523509028224,674
599623523516715520,639
599623523524402816,184
599623523532090240,-182
599623523539777536,-158
599623523547464832,-63
599623523555152256,-46
599623523562839552,2
599623523570526848,25
599623523578214144,0
599623523585901568,11
599623523593588864,32
599623523601276160,28
599623523608963456,28
599623523616650880,39
599623523624338176,42
599623523632025472,42
599623523639712896,46
599623523647400192,51
599623523655087488,51
599623523662774784,56
599623523670462208,63
599623523678149504,65
599623523685836800,70
599623523693524096,77
599623523701211520,81
599623523708898816,88
599623523716586112,95
599623523724273536,105
599623523731960832,114
599623523739648128,126
599623523747335424,133
599623523755022848,137
599623523762710144,140
599623523770397440,140
599623523778084736,137
599623523785772160,126
599623523793459456,105
599623523801146752,79
599623523808834176,49
599623523816521472,23
599623523824208768,7
599623523831896064,-4
599623523839583476,-14
599623523847270912,-18
599623523854958336,-18
599623523862645888,-16
599623523870333312,-11
599623523878020736,-11
599623523885708288,-11
599623523893395712,-7
599623523901083264,-7
599623523908770688,-7
599623523916458112,-2
599623523924145664,0
599623523931833088,-2
599623523939520512,0
599623523947208064,4
599623523954895488,7
599623523962582912,7
599623523970270464,9
599623523977957888,11
599623523985645440,14
599623523993332864,16
599623524001020288,16
599623524008707840,21
599623524016395264,21
599623524024082688,21
599623524031770240,21
599623524039457664,25
599623524047145088,28
599623524054832640,25
599623524062520064,25
599623524070207488,28
599623524077895040,28
599623524085582464,28
599623524093270016,28
599623524100957440,28
599623524108644864,28
599623524116332416,30
599623524124019840,32
599623524131707264,32
599623524139394816,32
599623524147082240,32
599623524154769664,32
599623524162457216,32
599623524170144640,32
599623524177832192,32
599623524185519616,32
599623524193207040,35
599623524200894592,35
599623524208582016,32
599623524216269440,35
599623524223956992,37
599623524231644416,37
599623524239331840,35
599623524247019392,35
599623524254706816,37
599623524262394368,35
599623524270081792,35
599623524277769216,35
599623524285456768,37
599623524293144192,37
599623524300831616,35
599623524308519168,37
599623524316206592,39
599623524323894016,37
599623524331581568,37
599623524339268992,37
599623524346956544,37
599623524354643968,37
599623524362331392,37
599623524370018944,39
599623524377706368,39
599623524385393792,39
599623524393081344,35
599623524400768808,37
599623524408455936,39
599623524416143104,39
599623524423830272,35
599623524431517568,37
599623524439204736,37
599623524446891904,37
599623524454579072,35
599623524462266240,37
599623524469953408,37
599623524477640704,37
599623524485327872,35
599623524493015040,35
599623524500702208,46
599623524508389376,63
599623524516076672,67
599623524523763840,60
599623524531451008,58
599623524539138176,51
599623524546825344,35
599623524554512512,28
599623524562199808,37
599623524569886976,37
599623524577574144,35
599623524585261312,39
599623524592948480,39
599623524600635776,37
599623524608322944,37
599623524616010112,16
599623524623697280,-65
599623524631384448,-140
599623524639071744,-9
599623524646758912,345
599623524654446080,637
599623524662133248,520
599623524669820416,63
599623524677507584,-224
599623524685194880,-156
599623524692882048,-63
599623524700569216,-28
599623524708256384,35
599623524715943552,51
599623524723630848,21
599623524731318016,30
599623524739005184,51
599623524746692352,46
599623524754379520,46
599623524762066688,56
599623524769753984,56
599623524777441152,58
599623524785128320,63
599623524792815488,65
599623524800502656,67
599623524808189952,72
599623524815877120,74
599623524823564288,79
599623524831251456,86
599623524838938624,91
599623524846625792,95
599623524854313088,102
599623524862000256,109
599623524869687424,119
599623524877374592,128
599623524885061760,135
599623524892749056,142
599623524900436224,147
599623524908123392,147
599623524915810560,144
599623524923497728,140
599623524931184896,126
599623524938872192,105
599623524946559360,74
599623524954246528,42
599623524961933788,21
599623524969621376,4
599623524977308928,-7
599623524984996480,-14
599623524992684032,-14
599623525000371584,-14
599623525008059136,-14
599623525015746560,-11
599623525023434112,-9
599623525031121664,-7
599623525038809216,-4
599623525046496768,-4
599623525054184320,0
599623525061871872,2
599623525069559424,2
599623525077246976,2
599623525084934528,4
599623525092621952,7
599623525100309504,11
599623525107997056,14
599623525115684608,14
599623525123372160,16
599623525131059712,18
599623525138747264,18
599623525146434816,21
599623525154122368,23
599623525161809920,23
599623525169497472,23
599623525177184896,28
599623525184872448,28
599623525192560000,25
599623525200247552,25
599623525207935104,28
599623525215622656,28
599623525223310208,28
599623525230997760,28
599623525238685312,28
599623525246372864,30
599623525254060416,30
599623525261747840,30
599623525269435392,30
599623525277122944,32
599623525284810496,32
599623525292498048,32
599623525300185600,35
599623525307873152,32
599623525315560704,32
599623525323248256,32
599623525330935808,35
599623525338623232,35
599623525346310784,35
599623525353998336,35
599623525361685888,35
599623525369373440,35
599623525377060992,35
599623525384748544,35
599623525392436096,37
599623525400123648,35
599623525407811200,32
599623525415498752,32
599623525423186176,35
599623525430873728,35
599623525438561280,35
599623525446248832,35
599623525453936384,37
599623525461623936,35
599623525469311488,35
599623525476999040,37
599623525484686592,37
599623525492374144,37
599623525500061696,37
599623525507749120,37
599623525515436672,39
599623525523124207,37
599623525530811520,37
599623525538498816,37
599623525546185984,39
599623525553873280,39
599623525561560576,37
599623525569247872,39
599623525576935040,39
599623525584622336,37
599623525592309632,37
599623525599996928,39
599623525607684096,39
599623525615371392,35
599623525623058688,37
599623525630745856,39
599623525638433152,37
599623525646120448,35
599623525653807744,37
599623525661494912,39
599623525669182208,35
599623525676869504,30
599623525684556800,42
599623525692243968,65
599623525699931264,67
599623525707618560,58
599623525715305728,58
599623525722993024,58
599623525730680320,37
599623525738367616,23
599623525746054784,30
599623525753742080,37
599623525761429376,35
599623525769116672,35
599623525776803840,37
599623525784491136,37
599623525792178432,35
599623525799865600,18
599623525807552896,-56
599623525815240192,-144
599623525822927488,-65
599623525830614656,268
599623525838301952,642
599623525845989248,670
599623525853676544,245
599623525861363712,-161
599623525869051008,-170
599623525876738304,-65
599623525884425600,-49
599623525892112768,-2
599623525899800064,28
599623525907487360,0
599623525915174528,2
599623525922861824,25
599623525930549120,25
599623525938236416,23
599623525945923584,32
599623525953610880,35
599623525961298176,35
599623525968985472,39
599623525976672640,46
599623525984359936,49
599623525992047232,51
599623525999734400,56
599623526007421696,58
599623526015108992,65
599623526022796288,70
599623526030483456,77
599623526038170752,81
599623526045858048,88
599623526053545344,98
599623526061232512,105
599623526068919808,114
599623526076607104,121
599623526084294278,130
599623526091981696,135
599623526099669120,135
599623526107356544,130
599623526115043840,123
599623526122731264,107
599623526130418688,81
599623526138106112,53
599623526145793536,30
599623526153480960,9
599623526161168256,-7
599623526168855680,-11
599623526176543104,-16
599623526184230528,-18
599623526191917952,-18
599623526199605248,-14
599623526207292672,-9
599623526214980096,-9
599623526222667520,-7
599623526230354944,-2
599623526238042368,-2
599623526245729664,-2
599623526253417088,0
599623526261104512,4
599623526268791936,4
599623526276479360,4
599623526284166656,7
599623526291854080,9
599623526299541504,11
599623526307228928,14
599623526314916352,16
599623526322603776,16
599623526330291072,18
599623526337978496,18
599623526345665920,21
599623526353353344,23
599623526361040768,25
599623526368728064,23
599623526376415488,23
599623526384102912,25
599623526391790336,25
599623526399477760,25
599623526407165056,25
599623526414852480,23
599623526422539904,21
599623526430227328,23
599623526437914752,25
599623526445602176,25
599623526453289472,25
599623526460976896,25
599623526468664320,25
599623526476351744,25
599623526484039168,25
599623526491726464,28
599623526499413888,28
599623526507101312,28
599623526514788736,28
599623526522476160,30
599623526530163584,30
599623526537850880,30
599623526545538304,30
599623526553225728,28
599623526560913152,30
599623526568600576,32
599623526576287872,32
599623526583975296,32
599623526591662720,32
599623526599350144,32
599623526607037568,32
599623526614724992,32
599623526622412288,32
599623526630099712,35
599623526637787136,35
599623526645474519,35
599623526653161984,32
599623526660849408,35
599623526668536832,35
599623526676224128,35
599623526683911552,35
599623526691598976,35
599623526699286400,35
599623526706973824,32
599623526714661248,35
599623526722348544,35
599623526730035968,35
599623526737723392,35
599623526745410816,35
599623526753098240,35
599623526760785536,37
599623526768472960,37
599623526776160384,37
599623526783847808,35
599623526791535232,37
599623526799222656,37
599623526806909952,37
599623526814597376,37
599623526822284800,39
599623526829972224,39
599623526837659648,37
599623526845346944,37
599623526853034368,39
599623526860721792,37
599623526868409216,30
599623526876096640,39
599623526883784064,63
599623526891471360,67
599623526899158784,60
599623526906846208,60
599623526914533632,53
599623526922221056,32
599623526929908352,21
599623526937595776,30
599623526945283200,35
599623526952970624,32
599623526960658048,32
599623526968345472,32
599623526976032768,30
599623526983720192,35
599623526991407616,18
599623526999095040,-60
599623527006782464,-142
599623527014469760,-37
599623527022157184,305
599623527029844608,625
599623527037532032,565
599623527045219456,121
599623527052906880,-214
599623527060594176,-179
599623527068281600,-72
599623527075969024,-39
599623527083656448,18
599623527091343872,44
599623527099031168,14
599623527106718592,23
599623527114406016,44
599623527122093440,37
599623527129780864,35
599623527137468160,49
599623527145155584,51
599623527152843008,51
599623527160530432,53
599623527168217856,58
599623527175905280,60
599623527183592576,63
599623527191280000,67
599623527198967424,72
599623527206654764,77
599623527214342016,81
599623527222029312,88
599623527229716480,95
599623527237403776,102
599623527245091072,112
599623527252778368,119
599623527260465536,126
599623527268152832,133
599623527275840128,137
599623527283527424,142
599623527291214592,142
599623527298901888,135
599623527306589184,123
599623527314276352,107
599623527321963648,79
599623527329650944,46
599623527337338240,21
599623527345025408,7
599623527352712704,-7
599623527360400000,-16
599623527368087296,-18
599623527375774464,-18
599623527383461760,-18
599623527391149056,-16
599623527398836224,-11
599623527406523520,-9
599623527414210816,-7
599623527421898112,-7
599623527429585280,-7
599623527437272576,-4
599623527444959872,-2
599623527452647168,0
599623527460334336,4
599623527468021632,4
599623527475708928,4
599623527483396096,9
599623527491083392,14
599623527498770688,14
599623527506457984,14
599623527514145152,16
599623527521832448,18
599623527529519744,21
599623527537207040,21
599623527544894208,21
599623527552581504,23
599623527560268800,25
599623527567955968,25
599623527575643264,25
599623527583330560,28
599623527591017856,28
599623527598705024,28
599623527606392320,28
599623527614079616,30
599623527621766912,30
599623527629454080,28
599623527637141376,30
599623527644828672,30
599623527652515840,32
599623527660203136,32
599623527667890432,32
599623527675577728,32
599623527683264896,35
599623527690952192,35
599623527698639488,35
599623527706326784,35
599623527714013952,35
599623527721701248,35
599623527729388544,35
599623527737075840,35
599623527744763008,35
599623527752450304,35
599623527760137600,37
599623527767824831,37
599623527775512320,37
599623527783199872,37
599623527790887424,37
599623527798574976,37
599623527806262528,37
599623527813950080,35
599623527821637504,37
599623527829325056,37
599623527837012608,37
599623527844700160,37
599623527852387712,37
599623527860075264,37
599623527867762816,39
599623527875450368,39
599623527883137920,39
599623527890825472,37
599623527898512896,39
599623527906200448,39
599623527913888000,39
599623527921575552,39
599623527929263104,39
599623527936950656,37
599623527944638208,37
599623527952325760,39
599623527960013312,39
599623527967700864,37
599623527975388416,39
599623527983075840,37
599623527990763392,32
599623527998450944,42
599623528006138496,65
599623528013826048,70
599623528021513600,60
599623528029201152,60
599623528036888704,56
599623528044576256,37
599623528052263808,28
599623528059951360,37
599623528067638784,39
599623528075326336,37
599623528083013888,37
599623528090701440,39
599623528098388992,39
599623528106076544,37
599623528113764096,11
599623528121451648,-74
599623528129139200,-135
599623528136826752,9
599623528144514176,371
599623528152201728,658
599623528159889280,527
599623528167576832,65
599623528175264384,-212
599623528182951936,-142
599623528190639488,-53
599623528198327040,-30
599623528206014592,23
599623528213702144,35
599623528221389696,11
599623528229077120,23
599623528236764672,39
599623528244452224,35
599623528252139776,37
599623528259827328,44
599623528267514880,46
599623528275202432,49
599623528282889984,53
599623528290577536,53
599623528298265088,58
599623528305952512,63
599623528313640064,65
599623528321327616,70
599623528329015246,74
599623528336702848,79
599623528344390400,84
599623528352077952,88
599623528359765504,98
599623528367453056,105
599623528375140608,112
599623528382828032,119
599623528390515584,128
599623528398203136,133
599623528405890688,135
599623528413578240,135
599623528421265792,133
599623528428953344,121
599623528436640896,100
599623528444328448,70
599623528452016000,42
599623528459703424,18
599623528467390976,2
599623528475078528,-9
599623528482766080,-14
599623528490453632,-18
599623528498141184,-18
599623528505828736,-16
599623528513516288,-14
599623528521203840,-11
599623528528891392,-9
599623528536578944,-7
599623528544266368,-4
599623528551953920,-2
599623528559641472,-2
599623528567329024,0
599623528575016576,2
599623528582704128,2
599623528590391680,4
599623528598079232,7
599623528605766784,11
599623528613454336,11
599623528621141888,14
599623528628829312,14
599623528636516864,16
599623528644204416,18
599623528651891968,21
599623528659579520,23
599623528667267072,23
599623528674954624,23
599623528682642176,23
599623528690329728,25
599623528698017280,28
599623528705704704,28
599623528713392256,28
599623528721079808,28
599623528728767360,28
599623528736454912,28
599623528744142464,28
599623528751830016,30
599623528759517568,30
599623528767205120,30
599623528774892672,30
599623528782580224,30
599623528790267648,30
599623528797955200,30
599623528805642752,32
599623528813330304,32
599623528821017856,32
599623528828705408,32
599623528836392960,32
599623528844080512,35
599623528851768064,35
599623528859455616,32
599623528867143168,32
599623528874830592,35
599623528882518144,35
599623528890205665,35
599623528897892992,35
599623528905580288,35
599623528913267456,35
599623528920954752,35
599623528928642048,35
599623528936329344,35
599623528944016512,32
599623528951703808,30
599623528959391104,32
599623528967078400,32
599623528974765568,32
599623528982452864,32
599623528990140160,32
599623528997827328,32
599623529005514624,30
599623529013201920,32
599623529020889216,35
599623529028576384,35
599623529036263680,32
599623529043950976,35
599623529051638272,37
599623529059325440,35
599623529067012736,35
599623529074700032,35
599623529082387200,37
599623529090074496,37
599623529097761792,37
599623529105449088,37
599623529113136256,39
599623529120823552,37
599623529128510848,37
599623529136198144,37
599623529143885312,39
599623529151572608,37
599623529159259904,37
599623529166947072,39
599623529174634368,37
599623529182321664,30
599623529190008960,35
599623529197696128,56
599623529205383424,67
599623529213070720,63
599623529220758016,58
599623529228445184,60
599623529236132480,51
599623529243819776,30
599623529251507072,25
599623529259194240,37
599623529266881536,39
599623529274568832,32
599623529282256000,35
599623529289943296,37
599623529297630592,37
599623529305317888,30
599623529313005056,-14
599623529320692352,-112
599623529328379648,-133
599623529336066944,100
599623529343754112,504
599623529351441408,724
599623529359128704,471
599623529366815872,-16
599623529374503168,-205
599623529382190464,-105
599623529389877760,-53
599623529397564928,-30
599623529405252224,21
599623529412939520,14
599623529420626816,-2
599623529428313984,21
599623529436001280,30
599623529443688576,23
599623529451375736,28
599623529459063168,35
599623529466750592,35
599623529474438016,35
599623529482125312,42
599623529489812736,46
599623529497500160,49
599623529505187584,51
599623529512875008,56
599623529520562432,58
599623529528249728,65
599623529535937152,72
599623529543624576,77
599623529551312000,81
599623529558999424,88
599623529566686720,100
599623529574374144,109
599623529582061568,116
599623529589748992,123
599623529597436416,130
599623529605123840,133
599623529612811136,130
599623529620498560,128
599623529628185984,116
599623529635873408,98
599623529643560832,70
599623529651248128,39
599623529658935552,16
599623529666622976,0
599623529674310400,-11
599623529681997824,-16
599623529689685248,-21
599623529697372544,-21
599623529705059968,-18
599623529712747392,-14
599623529720434816,-14
599623529728122240,-11
599623529735809536,-9
599623529743496960,-4
599623529751184384,-4
599623529758871808,-2
599623529766559232,0
599623529774246528,2
599623529781933952,2
599623529789621376,2
599623529797308800,4
599623529804996224,9
599623529812683648,9
599623529820370944,11
599623529828058368,14
599623529835745792,14
599623529843433216,16
599623529851120640,18
599623529858807936,18
599623529866495360,21
599623529874182784,23
599623529881870208,18
599623529889557632,23
599623529897245056,25
599623529904932352,23
599623529912619776,23
599623529920307200,25
599623529927994624,25
599623529935682048,25
599623529943369344,25
599623529951056768,25
599623529958744192,23
599623529966431616,23
599623529974119040,23
599623529981806464,23
599623529989493760,25
599623529997181184,25
599623530004868608,28
599623530012555977,28
599623530020243584,25
599623530027931136,28
599623530035618688,28
599623530043306240,28
599623530050993792,28
599623530058681344,28
599623530066368768,28
599623530074056320,30
599623530081743872,30
599623530089431424,28
599623530097118976,28
599623530104806528,30
599623530112494080,30
599623530120181632,28
599623530127869184,30
599623530135556736,32
599623530143244160,30
599623530150931712,28
599623530158619264,30
599623530166306816,32
599623530173994368,32
599623530181681920,32
599623530189369472,30
599623530197057024,32
599623530204744576,32
599623530212432128,32
599623530220119680,35
599623530227807104,35
599623530235494656,35
599623530243182208,35
599623530250869760,35
599623530258557312,35
599623530266244864,37
599623530273932416,37
599623530281619968,35
599623530289307520,35
599623530296995072,35
599623530304682624,37
599623530312370048,35
599623530320057600,30
599623530327745152,42
599623530335432704,63
599623530343120256,65
599623530350807808,58
599623530358495360,56
599623530366182912,49
599623530373870464,30
599623530381558016,25
599623530389245440,35
599623530396932992,37
599623530404620544,35
599623530412308096,35
599623530419995648,35
599623530427683200,35
599623530435370752,35
599623530443058304,7
599623530450745856,-81
599623530458433408,-147
599623530466120960,11
599623530473808384,380
599623530481495936,635
599623530489183488,460
599623530496871040,2
599623530504558592,-235
599623530512246144,-151
599623530519933696,-67
599623530527621248,-30
599623530535308800,37
599623530542996352,44
599623530550683776,18
599623530558371328,32
599623530566058880,46
599623530573746392,39
599623530581433600,44
599623530589120768,53
599623530596807808,51
599623530604494976,53
599623530612182144,60
599623530619869184,63
599623530627556352,63
599623530635243392,67
599623530642930560,72
599623530650617728,74
599623530658304768,79
599623530665991936,84
599623530673679104,91
599623530681366144,100
599623530689053312,107
599623530696740480,112
599623530704427520,121
599623530712114688,130
599623530719801856,137
599623530727488896,142
599623530735176064,144
599623530742863104,144
599623530750550272,137
599623530758237440,126
599623530765924480,105
599623530773611648,77
599623530781298816,44
599623530788985856,21
599623530796673024,4
599623530804360192,-7
599623530812047232,-14
599623530819734400,-16
599623530827421440,-16
599623530835108608,-16
599623530842795776,-14
599623530850482816,-9
599623530858169984,-7
599623530865857152,-4
599623530873544192,-2
599623530881231360,-2
599623530888918528,0
599623530896605568,0
599623530904292736,4
599623530911979904,7
599623530919666944,9
599623530927354112,9
599623530935041152,11
599623530942728320,14
599623530950415488,16
599623530958102528,16
599623530965789696,18
599623530973476864,16
599623530981163904,18
599623530988851072,21
599623530996538240,21
599623531004225280,21
599623531011912448,23
599623531019599488,25
599623531027286656,23
599623531034973824,23
599623531042660864,25
599623531050348032,25
599623531058035200,25
599623531065722240,28
599623531073409408,25
599623531081096576,25
599623531088783616,28
599623531096470784,28
599623531104157824,28
599623531111844992,28
599623531119532160,30
599623531127219200,30
599623531134906289,30
599623531142593792,30
599623531150281344,30
599623531157968896,30
599623531165656448,30
599623531173344000,32
599623531181031552,32
599623531188718976,32
599623531196406528,30
599623531204094080,30
599623531211781632,30
599623531219469184,32
599623531227156736,30
599623531234844288,30
599623531242531840,32
599623531250219392,32
599623531257906944,32
599623531265594368,32
599623531273281920,35
599623531280969472,35
599623531288657024,32
599623531296344576,35
599623531304032128,35
599623531311719680,35
599623531319407232,35
599623531327094784,35
599623531334782336,35
599623531342469888,37
599623531350157312,37
599623531357844864,35
599623531365532416,37
599623531373219968,39
599623531380907520,39
599623531388595072,37
599623531396282624,39
599623531403970176,39
599623531411657728,37
599623531419345280,37
599623531427032832,37
599623531434720256,39
599623531442407808,37
599623531450095360,32
599623531457782912,44
599623531465470464,65
599623531473158016,63
599623531480845568,56
599623531488533120,58
599623531496220672,51
599623531503908224,30
599623531511595648,25
599623531519283200,35
599623531526970752,35
599623531534658304,32
599623531542345856,35
599623531550033408,35
599623531557720960,35
599623531565408512,30
599623531573096064,-11
599623531580783616,-109
599623531588471168,-137
599623531596158592,79
599623531603846144,476
599623531611533696,712
599623531619221248,478
599623531626908800,-9
599623531634596352,-210
599623531642283904,-109
599623531649971456,-49
599623531657659008,-28
599623531665346560,23
599623531673034112,18
599623531680721536,2
599623531688409088,23
599623531696096708,32
599623531703783936,28
599623531711471104,32
599623531719158272,39
599623531726845568,39
599623531734532736,42
599623531742219904,44
599623531749907072,49
599623531757594240,53
599623531765281408,53
599623531772968704,58
599623531780655872,63
599623531788343040,70
599623531796030208,74
599623531803717376,79
599623531811404672,86
599623531819091840,93
599623531826779008,100
599623531834466176,109
599623531842153344,119
599623531849840512,128
599623531857527808,133
599623531865214976,135
599623531872902144,133
599623531880589312,130
599623531888276480,119
599623531895963776,100
599623531903650944,74
599623531911338112,46
599623531919025280,23
599623531926712448,7
599623531934399744,-2
599623531942086912,-11
599623531949774080,-16
599623531957461248,-16
599623531965148416,-14
599623531972835584,-14
599623531980522880,-14
599623531988210048,-9
599623531995897216,-7
599623532003584384,-7
599623532011271552,-4
599623532018958848,0
599623532026646016,0
599623532034333184,2
599623532042020352,2
599623532049707520,4
599623532057394688,9
599623532065081984,9
599623532072769152,11
599623532080456320,14
599623532088143488,16
599623532095830656,16
599623532103517952,16
599623532111205120,21
599623532118892288,23
599623532126579456,21
599623532134266624,23
599623532141953792,25
599623532149641088,25
599623532157328256,25
599623532165015424,28
599623532172702592,28
599623532180389760,28
599623532188077056,28
599623532195764224,28
599623532203451392,30
599623532211138560,30
599623532218825728,30
599623532226513024,30
599623532234200192,30
599623532241887360,32
599623532249574528,32
599623532257261692,30
599623532264949120,32
599623532272636544,32
599623532280324096,32
599623532288011520,32
599623532295698944,32
599623532303386496,32
599623532311073920,35
599623532318761472,32
599623532326448896,32
599623532334136320,32
599623532341823872,32
599623532349511296,32
599623532357198720,35
599623532364886272,32
599623532372573696,32
599623532380261120,35
599623532387948672,35
599623532395636096,35
599623532403323648,35
599623532411011072,35
599623532418698496,35
599623532426386048,32
599623532434073472,35
599623532441760896,37
599623532449448448,35
599623532457135872,35
599623532464823296,35
599623532472510848,35
599623532480198272,32
599623532487885696,32
599623532495573248,32
599623532503260672,35
599623532510948224,32
599623532518635648,35
599623532526323072,35
599623532534010624,35
599623532541698048,35
599623532549385472,32
599623532557073024,32
599623532564760448,35
599623532572447872,37
599623532580135424,37
599623532587822848,35
599623532595510400,35
599623532603197824,35
599623532610885248,32
599623532618572800,37
599623532626260224,37
599623532633947648,37
599623532641635200,35
599623532649322624,30
599623532657010048,28
599623532664697600,42
599623532672385024,60
599623532680072576,65
599623532687760000,58
599623532695447424,56
599623532703134976,49
599623532710822400,32
599623532718509824,23
599623532726197376,32
599623532733884800,37
599623532741572224,32
599623532749259776,32
599623532756947200,35
599623532764634624,35
599623532772322176,30
599623532780009600,-4
599623532787697152,-98
599623532795384576,-142
599623532803072000,51
599623532810759552,439
599623532818447020,689
599623532826134272,492
599623532833821568,11
599623532841508992,-226
599623532849196288,-135
599623532856883584,-56
599623532864570880,-30
599623532872258304,21
599623532879945600,23
599623532887632896,0
599623532895320192,18
599623532903007616,32
599623532910694912,28
599623532918382208,30
599623532926069632,39
599623532933756928,39
599623532941444224,39
599623532949131520,46
599623532956818944,51
599623532964506240,53
599623532972193536,56
599623532979880832,58
599623532987568256,63
599623532995255552,70
599623533002942848,74
599623533010630272,79
599623533018317568,88
599623533026004864,95
599623533033692160,102
599623533041379584,112
599623533049066880,121
599623533056754176,128
599623533064441472,130
599623533072128896,135
599623533079816192,137
599623533087503488,130
599623533095190912,119
599623533102878208,105
599623533110565504,77
599623533118252800,44
599623533125940224,18
599623533133627520,2
599623533141314816,-11
599623533149002112,-18
599623533156689536,-21
599623533164376832,-23
599623533172064128,-23
599623533179751552,-18
599623533187438848,-14
599623533195126144,-14
599623533202813440,-14
599623533210500864,-11
599623533218188160,-7
599623533225875456,-2
599623533233562752,-4
599623533241250176,-4
599623533248937472,0
599623533256624768,2
599623533264312192,4
599623533271999488,7
599623533279686784,9
599623533287374080,11
599623533295061504,14
599623533302748800,14
599623533310436096,16
599623533318123392,18
599623533325810816,18
599623533333498112,18
599623533341185408,21
599623533348872832,23
599623533356560128,23
599623533364247424,21
599623533371934720,23
599623533379622178,23
599623533387309440,23
599623533394996736,25
599623533402684160,25
599623533410371456,25
599623533418058752,25
599623533425746048,25
599623533433433472,28
599623533441120768,28
599623533448808064,25
599623533456495360,25
599623533464182784,28
599623533471870080,25
599623533479557376,25
599623533487244800,25
599623533494932096,28
599623533502619392,25
599623533510306688,25
599623533517994112,28
599623533525681408,28
599623533533368704,28
599623533541056000,28
599623533548743424,30
599623533556430720,32
599623533564118016,32
599623533571805440,30
599623533579492736,30
599623533587180032,32
599623533594867328,32
599623533602554752,32
599623533610242048,32
599623533617929344,35
599623533625616640,35
599623533633304064,35
599623533640991360,35
599623533648678656,37
599623533656366080,37
599623533664053376,37
599623533671740672,37
599623533679427968,37
599623533687115392,37
599623533694802688,39
599623533702489984,37
599623533710177280,37
599623533717864704,39
599623533725552000,39
599623533733239296,39
599623533740926720,39
599623533748614016,39
599623533756301312,35
599623533763988608,32
599623533771676032,44
599623533779363328,65
599623533787050624,67
599623533794737920,63
599623533802425344,60
599623533810112640,53
599623533817799936,35
599623533825487360,28
599623533833174656,37
599623533840861952,39
599623533848549248,35
599623533856236672,35
599623533863923968,37
599623533871611264,39
599623533879298560,35
599623533886985984,4
599623533894673280,-84
599623533902360576,-137
599623533910048000,30
599623533917735296,401
599623533925422592,663
599623533933109888,490
599623533940797332,23
599623533948484736,-219
599623533956172160,-133
599623533963859712,-53
599623533971547136,-28
599623533979234560,25
599623533986922112,28
599623533994609536,4
599623534002297088,21
599623534009984512,35
599623534017671936,28
599623534025359488,32
599623534033046912,42
599623534040734336,42
599623534048421888,44
599623534056109312,49
599623534063796736,53
599623534071484288,53
599623534079171712,58
599623534086859264,63
599623534094546688,67
599623534102234112,72
599623534109921664,77
599623534117609088,81
599623534125296512,88
599623534132984064,95
599623534140671488,102
599623534148358912,112
599623534156046464,121
599623534163733888,128
599623534171421312,135
599623534179108864,137
599623534186796288,137
599623534194483840,135
599623534202171264,123
599623534209858688,105
599623534217546240,77
599623534225233664,49
599623534232921088,21
599623534240608640,4
599623534248296064,-4
599623534255983488,-14
599623534263671040,-21
599623534271358464,-18
599623534279046016,-16
599623534286733440,-16
599623534294420864,-14
599623534302108416,-9
599623534309795840,-9
599623534317483264,-7
599623534325170816,-4
599623534332858240,-2
599623534340545664,0
599623534348233216,0
599623534355920640,2
599623534363608192,4
599623534371295616,7
599623534378983040,9
599623534386670592,9
599623534394358016,14
599623534402045440,14
599623534409732992,14
599623534417420416,16
599623534425107840,18
599623534432795392,21
599623534440482816,23
599623534448170368,23
599623534455857792,25
599623534463545216,25
599623534471232768,25
599623534478920192,25
599623534486607616,23
599623534494295168,21
599623534501982664,23
599623534509669888,25
599623534517357056,25
599623534525044224,25
599623534532731520,25
599623534540418688,25
599623534548105856,25
599623534555793024,23
599623534563480192,23
599623534571167360,25
599623534578854656,28
599623534586541824,25
599623534594228992,25
599623534601916160,28
599623534609603328,28
599623534617290624,28
599623534624977792,28
599623534632664960,30
599623534640352128,30
599623534648039296,30
599623534655726464,30
599623534663413760,30
599623534671100928,30
599623534678788096,30
599623534686475264,32
599623534694162432,32
599623534701849728,32
599623534709536896,32
599623534717224064,32
599623534724911232,35
599623534732598400,32
599623534740285696,32
599623534747972864,32
599623534755660032,35
599623534763347200,35
599623534771034368,32
599623534778721536,35
599623534786408832,37
599623534794096000,35
599623534801783168,35
599623534809470336,37
599623534817157504,37
599623534824844800,37
599623534832531968,37
599623534840219136,37
599623534847906304,39
599623534855593472,37
599623534863280640,35
599623534870967936,37
599623534878655104,39
599623534886342272,39
599623534894029440,37
599623534901716608,39
599623534909403904,39
599623534917091072,37
599623534924778240,37
599623534932465408,37
599623534940152576,35
599623534947839744,32
599623534955527040,46
599623534963214208,65
599623534970901376,65
599623534978588544,60
599623534986275712,60
599623534993963008,51
599623535001650176,28
599623535009337344,21
599623535017024512,32
599623535024711680,35
599623535032398848,30
599623535040086144,32
599623535047773312,35
599623535055460480,32
599623535063147644,28
599623535070835200,-9
599623535078522752,-105
599623535086210304,-144
599623535093897856,58
599623535101585408,462
599623535109272960,724
599623535116960384,518
599623535124647936,25
599623535132335488,-205
599623535140023040,-119
599623535147710592,-58
599623535155398144,-39
599623535163085696,11
599623535170773248,11
599623535178460800,-7
599623535186148352,11
599623535193835776,23
599623535201523328,18
599623535209210880,23
599623535216898432,32
599623535224585984,32
599623535232273536,32
599623535239961088,39
599623535247648640,44
599623535255336192,46
599623535263023744,51
599623535270711296,56
599623535278398720,58
599623535286086272,63
599623535293773824,70
599623535301461376,77
599623535309148928,84
599623535316836480,91
599623535324524032,98
599623535332211584,107
599623535339899136,116
599623535347586688,123
599623535355274240,130
599623535362961664,135
599623535370649216,135
599623535378336768,130
599623535386024320,123
599623535393711872,105
599623535401399424,79
599623535409086976,49
599623535416774528,23
599623535424462080,4
599623535432149632,-9
599623535439837056,-18
599623535447524608,-21
599623535455212160,-23
599623535462899712,-23
599623535470587264,-21
599623535478274816,-16
599623535485962368,-11
599623535493649920,-14
599623535501337472,-14
599623535509025024,-9
599623535516712576,-9
599623535524400000,-9
599623535532087552,-4
599623535539775104,-4
599623535547462656,-2
599623535555150208,0
599623535562837760,4
599623535570525312,4
599623535578212864,7
599623535585900416,7
599623535593587968,9
599623535601275520,11
599623535608962944,11
599623535616650496,14
599623535624338063,16
599623535632025344,16
599623535639712640,16
599623535647399808,18
599623535655087104,18
599623535662774400,16
599623535670461696,18
599623535678148864,21
599623535685836160,21
599623535693523456,18
599623535701210752,18
599623535708897920,18
599623535716585216,21
599623535724272512,21
599623535731959680,18
599623535739646976,21
599623535747334272,21
599623535755021568,23
599623535762708736,25
599623535770396032,23
599623535778083328,21
599623535785770624,21
599623535793457792,25
599623535801145088,28
599623535808832384,28
599623535816519552,25
599623535824206848,28
599623535831894144,28
599623535839581440,28
599623535847268608,28
599623535854955904,28
599623535862643200,30
599623535870330496,30
599623535878017664,30
599623535885704960,30
599623535893392256,30
599623535901079424,30
599623535908766720,30
599623535916454016,30
599623535924141312,30
599623535931828480,30
599623535939515776,32
599623535947203072,32
599623535954890368,30
599623535962577536,32
599623535970264832,32
599623535977952128,32
599623535985639424,32
599623535993326592,32
599623536001013888,32
599623536008701184,30
599623536016388352,30
599623536024075648,32
599623536031762944,30
599623536039450240,32
599623536047137408,35
599623536054824704,32
599623536062512000,32
599623536070199296,32
599623536077886464,30
599623536085573760,25
599623536093261056,37
599623536100948224,58
599623536108635520,63
599623536116322816,58
599623536124010112,56
599623536131697280,49
599623536139384576,30
599623536147071872,21
599623536154759168,32
599623536162446336,37
599623536170133632,32
599623536177820928,32
599623536185508134,35
599623536193195520,35
599623536200882944,32
599623536208570368,4
599623536216257664,-79
599623536223945088,-142
599623536231632512,2
599623536239319936,366
599623536247007360,632
599623536254694784,478
599623536262382080,14
599623536270069504,-238
599623536277756928,-154
599623536285444352,-67
599623536293131776,-30
599623536300819072,37
599623536308506496,44
599623536316193920,16
599623536323881344,30
599623536331568768,44
599623536339256192,37
599623536346943488,42
599623536354630912,51
599623536362318336,51
599623536370005760,51
599623536377693184,58
599623536385380480,60
599623536393067904,63
599623536400755328,67
599623536408442752,72
599623536416130176,77
599623536423817600,81
599623536431504896,86
599623536439192320,91
599623536446879744,98
599623536454567168,105
599623536462254592,112
599623536469941888,121
599623536477629312,128
599623536485316736,135
599623536493004160,140
599623536500691584,142
599623536508378880,142
599623536516066304,135
599623536523753728,126
599623536531441152,109
599623536539128576,81
599623536546816000,51
599623536554503296,25
599623536562190720,7
599623536569878144,-7
599623536577565568,-16
599623536585252992,-18
599623536592940288,-18
599623536600627712,-16
599623536608315136,-16
599623536616002560,-14
599623536623689984,-11
599623536631377408,-7
599623536639064704,-4
599623536646752128,-2
599623536654439552,-2
599623536662126976,-2
599623536669814400,0
599623536677501696,2
599623536685189120,4
599623536692876544,7
599623536700563968,9
599623536708251392,9
599623536715938816,11
599623536723626112,14
599623536731313536,16
599623536739000960,18
599623536746688375,18
599623536754375552,18
599623536762062720,21
599623536769749760,21
599623536777436928,21
599623536785124096,23
599623536792811136,23
599623536800498304,21
599623536808185344,21
599623536815872512,21
599623536823559680,23
599623536831246720,23
599623536838933888,23
599623536846621056,23
599623536854308096,23
599623536861995264,25
599623536869682432,23
599623536877369472,25
599623536885056640,28
599623536892743808,28
599623536900430848,25
599623536908118016,28
599623536915805056,28
599623536923492224,28
599623536931179392,28
599623536938866432,28
599623536946553600,30
599623536954240768,28
599623536961927808,28
599623536969614976,30
599623536977302144,30
599623536984989184,28
599623536992676352,30
599623537000363392,32
599623537008050560,32
599623537015737728,28
599623537023424768,28
599623537031111936,30
599623537038799104,30
599623537046486144,30
599623537054173312,30
599623537061860480,30
599623537069547520,30
599623537077234688,30
599623537084921856,30
599623537092608896,32
599623537100296064,32
599623537107983104,32
599623537115670272,32
599623537123357440,32
599623537131044480,32
599623537138731648,32
599623537146418816,35
599623537154105856,35
599623537161793024,35
599623537169480192,32
599623537177167232,35
599623537184854400,32
599623537192541440,35
599623537200228608,32
599623537207915776,28
599623537215602816,28
599623537223289984,46
599623537230977152,63
599623537238664192,63
599623537246351360,58
599623537254038528,58
599623537261725568,46
599623537269412736,25
599623537277099776,25
599623537284786944,35
599623537292474112,35
599623537300161152,30
599623537307848272,32
599623537315535872,35
599623537323223424,32
599623537330910976,25
599623537338598528,-28
599623537346286080,-128
599623537353973632,-119
599623537361661056,151
599623537369348608,553
599623537377036160,712
599623537384723712,387
599623537392411264,-84
599623537400098816,-200
599623537407786368,-91
599623537415473920,-53
599623537423161472,-21
599623537430849024,23
599623537438536448,7
599623537446224000,-2
599623537453911552,23
599623537461599104,28
599623537469286656,23
599623537476974208,30
599623537484661760,35
599623537492349312,35
599623537500036864,39
599623537507724416,42
599623537515411968,44
599623537523099392,46
599623537530786944,49
599623537538474496,53
599623537546162048,58
599623537553849600,63
599623537561537152,67
599623537569224704,77
599623537576912256,81
599623537584599808,88
599623537592287360,95
599623537599974912,105
599623537607662336,116
599623537615349888,123
599623537623037440,128
599623537630724992,130
599623537638412544,130
599623537646100096,128
599623537653787648,116
599623537661475200,98
599623537669162752,70
599623537676850304,42
599623537684537728,16
599623537692225280,2
599623537699912832,-9
599623537707600384,-16
599623537715287936,-21
599623537722975488,-21
599623537730663040,-18
599623537738350592,-16
599623537746038144,-14
599623537753725696,-11
599623537761413248,-9
599623537769100672,-7
599623537776788224,-4
599623537784475776,-2
599623537792163328,0
599623537799850880,2
599623537807538432,2
599623537815225984,2
599623537822913536,4
599623537830601088,7
599623537838288640,9
599623537845976064,11
599623537853663616,14
599623537861351168,14
599623537869038687,16
599623537876725888,18
599623537884413056,18
599623537892100096,18
599623537899787264,21
599623537907474432,23
599623537915161472,21
599623537922848640,21
599623537930535680,23
599623537938222848,23
599623537945910016,23
599623537953597056,21
599623537961284224,21
599623537968971392,23
599623537976658432,23
599623537984345600,25
599623537992032768,25
599623537999719808,25
599623538007406976,25
599623538015094144,25
599623538022781184,23
599623538030468352,23
599623538038155392,23
599623538045842560,23
599623538053529728,25
599623538061216768,25
599623538068903936,25
599623538076591104,25
599623538084278144,25
599623538091965312,25
599623538099652480,25
599623538107339520,28
599623538115026688,28
599623538122713728,28
599623538130400896,28
599623538138088064,28
599623538145775104,28
599623538153462272,30
599623538161149440,32
599623538168836480,30
599623538176523648,30
599623538184210816,28
599623538191897856,23
599623538199585024,30
599623538207272192,51
599623538214959232,63
599623538222646400,56
599623538230333440,51
599623538238020608,49
599623538245707776,30
599623538253394816,16
599623538261081984,25
599623538268769152,32
599623538276456192,28
599623538284143360,28
599623538291830528,32
599623538299517568,32
599623538307204736,25
599623538314891776,-11
599623538322578944,-107
599623538330266112,-144
599623538337953152,60
599623538345640320,453
599623538353327488,696
599623538361014528,483
599623538368701696,-7
599623538376388864,-226
599623538384075904,-121
599623538391763072,-51
599623538399450112,-30
599623538407137280,25
599623538414824448,25
599623538422511488,2
599623538430198584,21
599623538437886080,35
599623538445573632,30
599623538453261184,35
599623538460948736,42
599623538468636288,42
599623538476323840,42
599623538484011264,46
599623538491698816,49
599623538499386368,51
599623538507073920,56
599623538514761472,63
599623538522449024,65
599623538530136576,70
599623538537824128,74
599623538545511680,79
599623538553199232,88
599623538560886656,98
599623538568574208,107
599623538576261760,119
599623538583949312,128
599623538591636864,135
599623538599324416,142
599623538607011968,147
599623538614699520,147
599623538622387072,140
599623538630074624,128
599623538637762176,105
599623538645449600,70
599623538653137152,37
599623538660824704,11
599623538668512256,-7
599623538676199808,-18
599623538683887360,-25
599623538691574912,-30
599623538699262464,-28
599623538706950016,-25
599623538714637568,-21
599623538722325120,-21
599623538730012544,-18
599623538737700096,-16
599623538745387648,-11
599623538753075200,-11
599623538760762752,-9
599623538768450304,-7
599623538776137856,-4
599623538783825408,-4
599623538791512960,-2
599623538799200512,0
599623538806887936,2
599623538814575488,7
599623538822263040,7
599623538829950592,9
599623538837638144,11
599623538845325696,14
599623538853013248,16
599623538860700800,18
599623538868388352,18
599623538876075904,18
599623538883763456,21
599623538891450880,21
599623538899138432,21
599623538906825984,21
599623538914513536,21
599623538922201088,23
599623538929888640,23
599623538937576192,23
599623538945263744,25
599623538952951296,25
599623538960638848,25
599623538968326400,25
599623538976013824,25
599623538983701376,28
599623538991389003,28
599623538999076224,25
599623539006763392,25
599623539014450432,23
599623539022137600,23
599623539029824768,18
599623539037511808,21
599623539045198976,37
599623539052886016,53
599623539060573184,51
599623539068260352,49
599623539075947392,49
599623539083634560,37
599623539091321728,23
599623539099008768,18
599623539106695936,23
599623539114383104,25
599623539122070144,25
599623539129757312,25
599623539137444480,28
599623539145131520,25
599623539152818688,25
599623539160505728,14
599623539168192896,-49
599623539175880064,-142
599623539183567104,-86
599623539191254272,221
599623539198941440,572
599623539206628480,593
599623539214315648,184
599623539222002816,-196
599623539229689856,-200
599623539237377024,-93
599623539245064064,-56
599623539252751232,14
599623539260438400,53
599623539268125440,18
599623539275812608,18
599623539283499776,44
599623539291186816,42
599623539298873984,37
599623539306561152,46
599623539314248192,51
599623539321935360,53
599623539329622528,56
599623539337309568,58
599623539344996736,63
599623539352683776,67
599623539360370944,70
599623539368058112,74
599623539375745152,79
599623539383432320,84
599623539391119488,91
599623539398806528,98
599623539406493696,107
599623539414180864,119
599623539421867904,126
599623539429555072,135
599623539437242112,147
599623539444929280,154
599623539452616448,156
599623539460303488,156
599623539467990656,154
599623539475677824,140
599623539483364864,114
599623539491052032,77
599623539498739200,42
599623539506426240,14
599623539514113408,-7
599623539521800448,-16
599623539529487616,-25
599623539537174784,-28
599623539544861824,-28
599623539552548900,-25
599623539560236160,-25
599623539567923456,-23
599623539575610880,-18
599623539583298176,-16
599623539590985472,-14
599623539598672768,-14
599623539606360192,-11
599623539614047488,-9
599623539621734784,-7
599623539629422080,-9
599623539637109504,-7
599623539644796800,-2
599623539652484096,0
599623539660171520,2
599623539667858816,4
599623539675546112,7
599623539683233408,11
599623539690920832,11
599623539698608128,14
599623539706295424,16
599623539713982720,16
599623539721670144,16
599623539729357440,18
599623539737044736,21
599623539744732160,21
599623539752419456,18
599623539760106752,21
599623539767794048,23
599623539775481472,23
599623539783168768,23
599623539790856064,23
599623539798543360,23
599623539806230784,23
599623539813918080,25
599623539821605376,25
599623539829292800,25
599623539836980096,25
599623539844667392,28
599623539852354688,28
599623539860042112,28
599623539867729408,28
599623539875416704,28
599623539883104000,30
599623539890791424,28
599623539898478720,30
599623539906166016,30
599623539913853440,30
599623539921540736,30
599623539929228032,30
599623539936915328,30
599623539944602752,30
599623539952290048,30
599623539959977344,30
599623539967664640,32
599623539975352064,30
599623539983039360,30
599623539990726656,32
599623539998414080,32
599623540006101376,32
599623540013788672,32
599623540021475968,32
599623540029163392,32
599623540036850688,32
599623540044537984,32
599623540052225280,35
599623540059912704,35
599623540067600000,30
599623540075287296,30
599623540082974720,32
599623540090662016,35
599623540098349312,35
599623540106036608,32
599623540113724058,32
599623540121411328,32
599623540129098624,32
599623540136786048,32
599623540144473344,32
599623540152160640,35
599623540159847936,35
599623540167535360,32
599623540175222656,30
599623540182909952,32
599623540190597248,32
599623540198284672,32
599623540205971968,32
599623540213659264,30
599623540221346688,25
599623540229033984,37
599623540236721280,58
599623540244408576,63
599623540252096000,56
599623540259783296,53
599623540267470592,51
599623540275157888,32
599623540282845312,21
599623540290532608,28
599623540298219904,35
599623540305907328,30
599623540313594624,30
599623540321281920,32
599623540328969216,32
599623540336656640,30
599623540344343936,0
599623540352031232,-95
599623540359718528,-156
599623540367405952,11
599623540375093248,406
599623540382780544,719
599623540390467968,581
599623540398155264,93
599623540405842560,-193
599623540413529856,-126
599623540421217280,-53
599623540428904576,-42
599623540436591872,9
599623540444279168,16
599623540451966592,-4
599623540459653888,11
599623540467341184,25
599623540475028608,21
599623540482715904,23
599623540490403200,32
599623540498090496,32
599623540505777920,35
599623540513465216,39
599623540521152512,42
599623540528839808,44
599623540536527232,49
599623540544214528,51
599623540551901824,53
599623540559589248,60
599623540567276544,63
599623540574963840,65
599623540582651136,72
599623540590338560,79
599623540598025856,86
599623540605713152,95
599623540613400448,102
599623540621087872,109
599623540628775168,116
599623540636462464,121
599623540644149888,121
599623540651837184,121
599623540659524480,114
599623540667211776,100
599623540674899212,79
599623540682586368,53
599623540690273536,28
599623540697960576,11
599623540705647744,0
599623540713334912,-11
599623540721021952,-16
599623540728709120,-16
599623540736396160,-21
599623540744083328,-21
599623540751770496,-14
599623540759457536,-11
599623540767144704,-11
599623540774831872,-9
599623540782518912,-4
599623540790206080,-2
599623540797893248,-2
599623540805580288,0
599623540813267456,0
599623540820954624,2
599623540828641664,4
599623540836328832,7
599623540844015872,9
599623540851703040,9
599623540859390208,11
599623540867077248,16
599623540874764416,16
599623540882451584,16
599623540890138624,18
599623540897825792,21
599623540905512960,21
599623540913200000,21
599623540920887168,21
599623540928574208,23
599623540936261376,23
599623540943948544,23
599623540951635584,21
599623540959322752,21
599623540967009920,23
599623540974696960,23
599623540982384128,23
599623540990071296,25
599623540997758336,23
599623541005445504,23
599623541013132672,25
599623541020819712,25
599623541028506880,25
599623541036193920,28
599623541043881088,28
599623541051568256,25
599623541059255296,25
599623541066942464,28
599623541074629632,25
599623541082316672,25
599623541090003840,25
599623541097691008,25
599623541105378048,28
599623541113065216,28
599623541120752256,30
599623541128439424,30
599623541136126592,28
599623541143813632,28
599623541151500800,30
599623541159187968,30
599623541166875008,30
599623541174562176,30
599623541182249344,30
599623541189936384,30
599623541197623552,30
599623541205310592,32
599623541212997760,32
599623541220684928,30
599623541228371968,32
599623541236059109,32
599623541243746304,32
599623541251433472,32
599623541259120512,35
599623541266807680,35
599623541274494848,32
599623541282181888,30
599623541289869056,32
599623541297556096,35
599623541305243264,35
599623541312930432,35
599623541320617472,35
599623541328304640,35
599623541335991808,32
599623541343678848,35
599623541351366016,37
599623541359053184,35
599623541366740224,35
599623541374427392,35
599623541382114560,35
599623541389801600,37
599623541397488768,35
599623541405175808,35
599623541412862976,53
599623541420550144,70
599623541428237184,63
599623541435924352,56
599623541443611520,58
599623541451298560,44
599623541458985728,25
599623541466672896,28
599623541474359936,39
599623541482047104,35
599623541489734144,32
599623541497421312,37
599623541505108480,37
599623541512795520,35
599623541520482688,28
599623541528169856,-23
599623541535856896,-123
599623541543544064,-109
599623541551231232,161
599623541558918272,544
599623541566605440,658
599623541574292608,315
599623541581979648,-130
599623541589666816,-221
599623541597353856,-102
599623541605041024,-56
599623541612728192,-7
599623541620415232,44
599623541628102400,23
599623541635789568,9
599623541643476608,35
599623541651163776,39
599623541658850944,35
599623541666537984,39
599623541674225152,46
599623541681912192,46
599623541689599360,51
599623541697286528,56
599623541704973568,58
599623541712660736,60
599623541720347904,65
599623541728034944,67
599623541735722112,72
599623541743409280,77
599623541751096320,84
599623541758783488,88
599623541766470528,95
599623541774157696,102
599623541781844864,112
599623541789531904,119
599623541797219006,126
599623541804906496,133
599623541812594048,137
599623541820281600,140
599623541827969152,137
599623541835656704,130
599623541843344256,121
599623541851031680,100
599623541858719232,72
599623541866406784,44
599623541874094336,18
599623541881781888,2
599623541889469440,-7
599623541897156992,-16
599623541904844544,-21
599623541912532096,-18
599623541920219648,-16
599623541927907072,-16
599623541935594624,-14
599623541943282176,-9
599623541950969728,-7
599623541958657280,-7
599623541966344832,-4
599623541974032384,-2
599623541981719936,2
599623541989407488,2
599623541997095040,4
599623542004782592,7
599623542012470016,9
599623542020157568,11
599623542027845120,14
599623542035532672,14
599623542043220224,16
599623542050907776,18
599623542058595328,18
599623542066282880,21
599623542073970432,23
599623542081657984,21
599623542089345536,21
599623542097032960,23
599623542104720512,23
599623542112408064,23
599623542120095616,23
599623542127783168,25
599623542135470720,23
599623542143158272,25
599623542150845824,25
599623542158533376,25
599623542166220928,30
599623542173908352,28
599623542181595904,28
599623542189283456,28
599623542196971008,30
599623542204658560,30
599623542212346112,30
599623542220033664,30
599623542227721216,30
599623542235408768,30
599623542243096320,32
599623542250783872,32
599623542258471296,32
599623542266158848,32
599623542273846400,35
599623542281533952,35
599623542289221504,32
599623542296909056,35
599623542304596608,35
599623542312284160,37
599623542319971712,37
599623542327659264,37
599623542335346816,37
599623542343034240,39
599623542350721792,37
599623542358409425,37
599623542366096640,39
599623542373783808,37
599623542381470848,37
599623542389158016,37
599623542396845184,39
599623542404532224,39
599623542412219392,39
599623542419906432,39
599623542427593600,39
599623542435280768,37
599623542442967808,37
599623542450654976,37
599623542458342144,37
599623542466029184,37
599623542473716352,37
599623542481403520,39
599623542489090560,37
599623542496777728,32
599623542504464896,44
599623542512151936,65
599623542519839104,67
599623542527526144,58
599623542535213312,58
599623542542900480,51
599623542550587520,30
599623542558274688,25
599623542565961856,32
599623542573648896,35
599623542581336064,32
599623542589023232,32
599623542596710272,32
599623542604397440,32
599623542612084480,30
599623542619771648,0
599623542627458816,-91
599623542635145856,-147
599623542642833024,18
599623542650520192,397
599623542658207232,679
599623542665894400,525
599623542673581568,51
599623542681268608,-212
599623542688955776,-133
599623542696642944,-58
599623542704329984,-35
599623542712017152,23
599623542719704192,30
599623542727391360,4
599623542735078528,18
599623542742765568,35
599623542750452736,28
599623542758139904,32
599623542765826944,42
599623542773514112,42
599623542781201280,42
599623542788888320,49
599623542796575488,51
599623542804262528,51
599623542811949696,56
599623542819636864,63
599623542827323904,65
599623542835011072,70
599623542842698240,74
599623542850385280,81
599623542858072448,88
599623542865759616,98
599623542873446656,102
599623542881133824,109
599623542888820864,119
599623542896508032,128
599623542904195200,133
599623542911882240,137
599623542919569322,137
599623542927256576,135
599623542934943872,126
599623542942631296,112
599623542950318592,86
599623542958005888,56
599623542965693184,30
599623542973380608,11
599623542981067904,-4
599623542988755200,-14
599623542996442496,-18
599623543004129920,-18
599623543011817216,-18
599623543019504512,-16
599623543027191936,-14
599623543034879232,-11
599623543042566528,-9
599623543050253824,-7
599623543057941248,-4
599623543065628544,-2
599623543073315840,-2
599623543081003136,-2
599623543088690560,0
599623543096377856,0
599623543104065152,2
599623543111752576,4
599623543119439872,7
599623543127127168,9
599623543134814464,9
599623543142501888,11
599623543150189184,14
599623543157876480,16
599623543165563776,16
599623543173251200,18
599623543180938496,18
599623543188625792,18
599623543196313216,18
599623543204000512,21
599623543211687808,21
599623543219375104,21
599623543227062528,23
599623543234749824,21
599623543242437120,23
599623543250124416,25
599623543257811840,25
599623543265499136,25
599623543273186432,25
599623543280873856,25
599623543288561152,25
599623543296248448,28
599623543303935744,28
599623543311623168,28
599623543319310464,28
599623543326997760,28
599623543334685056,30
599623543342372480,30
599623543350059776,28
599623543357747072,30
599623543365434496,30
599623543373121792,30
599623543380809088,30
599623543388496384,30
599623543396183808,30
599623543403871104,30
599623543411558400,32
599623543419245696,32
599623543426933120,30
599623543434620416,30
599623543442307712,30
599623543449995136,32
599623543457682432,32
599623543465369728,30
599623543473057024,32
599623543480744480,32
599623543488431744,32
599623543496119040,32
599623543503806464,32
599623543511493760,35
599623543519181056,35
599623543526868352,32
599623543534555776,32
599623543542243072,32
599623543549930368,35
599623543557617664,32
599623543565305088,30
599623543572992384,32
599623543580679680,32
599623543588367104,32
599623543596054400,30
599623543603741696,28
599623543611428992,30
599623543619116416,30
599623543626803712,28
599623543634491008,30
599623543642178304,30
599623543649865728,23
599623543657553024,28
599623543665240320,53
599623543672927744,63
599623543680615040,51
599623543688302336,49
599623543695989632,51
599623543703677056,32
599623543711364352,16
599623543719051648,21
599623543726738944,30
599623543734426368,25
599623543742113664,25
599623543749800960,28
599623543757488384,28
599623543765175680,28
599623543772862976,11
599623543780550272,-60
599623543788237696,-151
599623543795924992,-77
599623543803612288,259
599623543811299584,632
599623543818987008,660
599623543826674304,233
599623543834361600,-170
599623543842049024,-179
599623543849736320,-74
599623543857423616,-58
599623543865110912,-9
599623543872798336,25
599623543880485632,-2
599623543888172928,0
599623543895860224,23
599623543903547648,23
599623543911234944,21
599623543918922240,30
599623543926609664,32
599623543934296960,32
599623543941984256,39
599623543949671552,42
599623543957358976,44
599623543965046272,49
599623543972733568,53
599623543980420864,56
599623543988108288,60
599623543995795584,67
599623544003482880,72
599623544011170304,77
599623544018857600,86
599623544026544896,95
599623544034232192,102
599623544041919634,109
599623544049607040,119
599623544057294464,126
599623544064982016,130
599623544072669440,133
599623544080356864,133
599623544088044416,126
599623544095731840,112
599623544103419392,91
599623544111106816,60
599623544118794240,30
599623544126481792,7
599623544134169216,-11
599623544141856640,-23
599623544149544192,-28
599623544157231616,-32
599623544164919040,-32
599623544172606592,-30
599623544180294016,-28
599623544187981568,-25
599623544195668992,-21
599623544203356416,-21
599623544211043968,-18
599623544218731392,-16
599623544226418816,-14
599623544234106368,-11
599623544241793792,-9
599623544249481216,-9
599623544257168768,-4
599623544264856192,-2
599623544272543616,-4
599623544280231168,-2
599623544287918592,2
599623544295606144,4
599623544303293568,7
599623544310980992,7
599623544318668544,7
599623544326355968,11
599623544334043392,11
599623544341730944,11
599623544349418368,14
599623544357105792,14
599623544364793344,14
599623544372480768,14
599623544380168320,16
599623544387855744,16
599623544395543168,18
599623544403230720,16
599623544410918144,16
599623544418605568,18
599623544426293120,18
599623544433980544,18
599623544441667968,21
599623544449355520,21
599623544457042944,18
599623544464730496,21
599623544472417920,23
599623544480105344,23
599623544487792896,23
599623544495480320,23
599623544503167744,23
599623544510855296,25
599623544518542720,23
599623544526230144,23
599623544533917696,25
599623544541605120,25
599623544549292672,25
599623544556980096,25
599623544564667520,28
599623544572355072,28
599623544580042496,28
599623544587729920,28
599623544595417472,28
599623544603104966,25
599623544610792192,25
599623544618479360,25
599623544626166528,28
599623544633853824,23
599623544641540992,23
599623544649228160,28
599623544656915328,28
599623544664602496,25
599623544672289664,25
599623544679976960,25
599623544687664128,28
599623544695351296,28
599623544703038464,28
599623544710725632,28
599623544718412928,30
599623544726100096,28
599623544733787264,30
599623544741474432,28
599623544749161600,23
599623544756848768,32
599623544764536064,56
599623544772223232,63
599623544779910400,53
599623544787597568,51
599623544795284736,44
599623544802972032,23
599623544810659200,18
599623544818346368,30
599623544826033536,30
599623544833720704,28
599623544841408000,28
599623544849095168,30
599623544856782336,30
599623544864469504,25
599623544872156672,-7
599623544879843840,-95
599623544887531136,-144
599623544895218304,39
599623544902905472,415
599623544910592640,642
599623544918279808,422
599623544925967104,-44
599623544933654272,-233
599623544941341440,-135
599623544949028608,-70
599623544956715776,-25
599623544964402944,44
599623544972090240,39
599623544979777408,14
599623544987464576,32
599623544995151744,44
599623545002838912,35
599623545010526208,39
599623545018213376,49
599623545025900544,49
599623545033587712,51
599623545041274880,56
599623545048962048,58
599623545056649344,60
599623545064336512,65
599623545072023680,70
599623545079710848,72
599623545087398016,77
599623545095085312,84
599623545102772480,88
599623545110459648,93
599623545118146816,98
599623545125833984,105
599623545133521152,114
599623545141208448,123
599623545148895616,128
599623545156582784,133
599623545164269946,137
599623545171957120,137
599623545179644288,133
599623545187331456,121
599623545195018752,105
599623545202705920,77
599623545210393088,44
599623545218080256,18
599623545225767424,0
599623545233454592,-14
599623545241141888,-23
599623545248829056,-23
599623545256516224,-23
599623545264203392,-23
599623545271890560,-23
599623545279577856,-18
599623545287265024,-16
599623545294952192,-14
599623545302639360,-14
599623545310326528,-9
599623545318013824,-7
599623545325700992,-4
599623545333388160,-4
599623545341075328,-2
599623545348762496,0
599623545356449664,2
599623545364136960,4
599623545371824128,7
599623545379511296,9
599623545387198464,9
599623545394885632,11
599623545402572928,16
599623545410260096,18
599623545417947264,16
599623545425634432,18
599623545433321600,21
599623545441008768,21
599623545448696064,21
599623545456383232,21
599623545464070400,21
599623545471757568,21
599623545479444736,23
599623545487132032,23
599623545494819200,23
599623545502506368,23
599623545510193536,23
599623545517880704,23
599623545525567872,23
599623545533255168,25
599623545540942336,25
599623545548629504,25
599623545556316672,25
599623545564003840,25
599623545571691136,25
599623545579378304,28
599623545587065472,28
599623545594752640,28
599623545602439808,25
599623545610127104,28
599623545617814272,28
599623545625501440,25
599623545633188608,25
599623545640875776,28
599623545648562944,28
599623545656250240,28
599623545663937408,28
599623545671624576,28
599623545679311744,28
599623545686998912,28
599623545694686208,30
599623545702373376,30
599623545710060544,30
599623545717747712,30
599623545725434934,30
599623545733122304,32
599623545740809728,30
599623545748497280,30
599623545756184704,30
599623545763872128,32
599623545771559680,32
599623545779247104,32
599623545786934656,32
599623545794622080,32
599623545802309504,32
599623545809997056,30
599623545817684480,30
599623545825371904,30
599623545833059456,30
599623545840746880,30
599623545848434304,30
599623545856121856,32
599623545863809280,30
599623545871496832,25
599623545879184256,39
599623545886871680,60
599623545894559232,63
599623545902246656,53
599623545909934080,53
599623545917621632,46
599623545925309056,25
599623545932996480,18
599623545940684032,28
599623545948371456,32
599623545956058880,28
599623545963746432,30
599623545971433856,32
599623545979121408,30
599623545986808832,23
599623545994496256,-25
599623546002183808,-126
599623546009871232,-128
599623546017558656,126
599623546025246208,530
599623546032933632,712
599623546040621056,415
599623546048308608,-63
599623546055996032,-205
599623546063683584,-93
599623546071371008,-51
599623546079058432,-23
599623546086745984,25
599623546094433408,11
599623546102120832,-2
599623546109808384,21
599623546117495808,25
599623546125183232,18
599623546132870784,25
599623546140558208,32
599623546148245760,32
599623546155933184,35
599623546163620608,39
599623546171308160,42
599623546178995584,44
599623546186683008,49
599623546194370560,53
599623546202057984,58
599623546209745408,63
599623546217432960,67
599623546225120384,74
599623546232807808,79
599623546240495360,86
599623546248182784,95
599623546255870336,102
599623546263557760,109
599623546271245184,119
599623546278932736,123
599623546286620262,126
599623546294307456,128
599623546301994624,123
599623546309681664,116
599623546317368832,100
599623546325056000,74
599623546332743040,46
599623546340430208,21
599623546348117248,2
599623546355804416,-11
599623546363491584,-18
599623546371178624,-21
599623546378865792,-25
599623546386552960,-23
599623546394240000,-18
599623546401927168,-16
599623546409614336,-14
599623546417301376,-11
599623546424988544,-9
599623546432675712,-7
599623546440362752,-7
599623546448049920,-4
599623546455736960,-2
599623546463424128,0
599623546471111296,0
599623546478798336,2
599623546486485504,4
599623546494172672,7
599623546501859712,9
599623546509546880,11
599623546517234048,14
599623546524921088,14
599623546532608256,14
599623546540295296,16
599623546547982464,18
599623546555669632,18
599623546563356672,21
599623546571043840,21
599623546578731008,21
599623546586418048,18
599623546594105216,23
599623546601792384,23
599623546609479424,23
599623546617166592,23
599623546624853760,21
599623546632540800,21
599623546640227968,21
599623546647915008,21
599623546655602176,23
599623546663289344,25
599623546670976384,25
599623546678663552,25
599623546686350720,25
599623546694037760,25
599623546701724928,28
599623546709412096,28
599623546717099136,25
599623546724786304,28
599623546732473344,28
599623546740160512,28
599623546747847680,28
599623546755534720,30
599623546763221888,28
599623546770909056,28
599623546778596096,28
599623546786283264,30
599623546793970432,30
599623546801657472,30
599623546809344640,30
599623546817031680,30
599623546824718848,30
599623546832406016,30
599623546840093056,32
599623546847780159,30
599623546855467520,30
599623546863154944,30
599623546870842368,30
599623546878529664,30
599623546886217088,30
599623546893904512,32
599623546901591936,32
599623546909279360,30
599623546916966784,28
599623546924654080,28
599623546932341504,30
599623546940028928,32
599623546947716352,30
599623546955403776,28
599623546963091072,30
599623546970778496,32
599623546978465920,32
599623546986153344,30
599623546993840768,30
599623547001528192,30
599623547009215488,32
599623547016902912,32
599623547024590336,25
599623547032277760,30
599623547039965184,51
599623547047652480,63
599623547055339904,56
599623547063027328,51
599623547070714752,51
599623547078402176,32
599623547086089600,18
599623547093776896,25
599623547101464320,32
599623547109151744,28
599623547116839168,28
599623547124526592,28
599623547132213888,25
599623547139901312,23
599623547147588736,-2
599623547155276160,-91
599623547162963584,-156
599623547170651008,-2
599623547178338304,373
599623547186025728,667
599623547193713152,532
599623547201400576,58
599623547209088000,-228
599623547216775296,-156
599623547224462720,-70
599623547232150144,-42
599623547239837568,18
599623547247524992,30
599623547255212416,2
599623547262899712,16
599623547270587136,35
599623547278274560,28
599623547285961984,28
599623547293649408,37
599623547301336704,39
599623547309024128,39
599623547316711552,44
599623547324398976,49
599623547332086400,53
599623547339773696,56
599623547347461120,60
599623547355148544,65
599623547362835968,67
599623547370523392,74
599623547378210816,81
599623547385898112,88
599623547393585536,93
599623547401272960,100
599623547408960404,112
599623547416647680,119
599623547424334976,126
599623547432022144,133
599623547439709440,135
599623547447396736,135
599623547455084032,133
599623547462771200,123
599623547470458496,109
599623547478145792,88
599623547485833088,56
599623547493520256,25
599623547501207552,4
599623547508894848,-7
599623547516582016,-18
599623547524269312,-25
599623547531956608,-25
599623547539643904,-25
599623547547331072,-25
599623547555018368,-21
599623547562705664,-16
599623547570392960,-14
599623547578080128,-14
599623547585767424,-14
599623547593454720,-9
599623547601141888,-7
599623547608829184,-7
599623547616516480,-4
599623547624203776,-2
599623547631890944,-2
599623547639578240,-2
599623547647265536,2
599623547654952832,4
599623547662640000,7
599623547670327296,7
599623547678014592,11
599623547685701760,11
599623547693389056,14
599623547701076352,16
599623547708763648,16
599623547716450816,18
599623547724138112,18
599623547731825408,18
599623547739512704,18
599623547747199872,21
599623547754887168,21
599623547762574464,21
599623547770261632,23
599623547777948928,23
599623547785636224,23
599623547793323520,23
599623547801010688,25
599623547808697984,25
599623547816385280,25
599623547824072576,25
599623547831759744,28
599623547839447040,28
599623547847134336,28
599623547854821504,28
599623547862508800,28
599623547870196096,28
599623547877883392,28
599623547885570560,30
599623547893257856,30
599623547900945152,30
599623547908632448,30
599623547916319616,30
599623547924006912,30
599623547931694208,32
599623547939381504,32
599623547947068672,32
599623547954755968,35
599623547962443264,35
599623547970130471,32
599623547977817600,32
599623547985504768,35
599623547993191808,35
599623548000878976,35
599623548008566144,32
599623548016253184,35
599623548023940352,35
599623548031627392,32
599623548039314560,30
599623548047001728,32
599623548054688768,32
599623548062375936,32
599623548070063104,28
599623548077750144,35
599623548085437312,56
599623548093124480,65
599623548100811520,58
599623548108498688,56
599623548116185856,49
599623548123872896,28
599623548131560064,18
599623548139247104,28
599623548146934272,30
599623548154621440,25
599623548162308480,28
599623548169995648,30
599623548177682816,30
599623548185369856,25
599623548193057024,-9
599623548200744192,-102
599623548208431232,-142
599623548216118400,53
599623548223805440,436
599623548231492608,674
599623548239179776,462
599623548246866816,-11
599623548254553984,-221
599623548262241152,-123
599623548269928192,-56
599623548277615360,-25
599623548285302528,28
599623548292989568,28
599623548300676736,4
599623548308363904,23
599623548316050944,37
599623548323738112,30
599623548331425152,32
599623548339112320,42
599623548346799488,42
599623548354486528,44
599623548362173696,49
599623548369860864,51
599623548377547904,53
599623548385235072,58
599623548392922240,63
599623548400609280,67
599623548408296448,72
599623548415983488,77
599623548423670656,81
599623548431357824,88
599623548439044864,98
599623548446732032,105
599623548454419200,112
599623548462106240,123
599623548469793408,130
599623548477480576,135
599623548485167616,140
599623548492854784,142
599623548500541824,137
599623548508228992,128
599623548515916160,109
599623548523603200,84
599623548531290368,53
599623548538977920,25
599623548546665472,7
599623548554353024,-7
599623548562040576,-16
599623548569728128,-23
599623548577415680,-23
599623548585103104,-21
599623548592790656,-18
599623548600478208,-16
599623548608165760,-14
599623548615853312,-11
599623548623540864,-11
599623548631228416,-11
599623548638915968,-11
599623548646603520,-7
599623548654291072,-7
599623548661978496,-4
599623548669666048,-2
599623548677353600,0
599623548685041152,2
599623548692728704,2
599623548700416256,7
599623548708103808,9
599623548715791360,9
599623548723478912,11
599623548731166464,16
599623548738854016,16
599623548746541440,16
599623548754228992,18
599623548761916544,21
599623548769604096,21
599623548777291648,21
599623548784979200,21
599623548792666752,21
599623548800354304,23
599623548808041856,21
599623548815729408,23
599623548823416960,23
599623548831104384,23
599623548838791936,23
599623548846479488,25
599623548854167040,25
599623548861854592,23
599623548869542144,23
599623548877229696,25
599623548884917248,28
599623548892604800,28
599623548900292352,28
599623548907979776,28
599623548915667328,28
599623548923354880,28
599623548931042432,28
599623548938729984,28
599623548946417536,28
599623548954105088,30
599623548961792640,30
599623548969480192,30
599623548977167744,30
599623548984855296,30
599623548992542720,30
599623549000230272,30
599623549007917824,30
599623549015605376,30
599623549023292928,30
599623549030980480,32
599623549038668032,32
599623549046355584,32
599623549054043136,32
599623549061730688,32
599623549069418240,35
599623549077105664,35
599623549084793216,32
599623549092480787,32
599623549100167936,35
599623549107855104,35
599623549115542144,32
599623549123229312,32
599623549130916480,32
599623549138603520,32
599623549146290688,32
599623549153977728,32
599623549161664896,30
599623549169352064,30
599623549177039104,30
599623549184726272,30
599623549192413440,30
599623549200100480,28
599623549207787648,28
599623549215474816,30
599623549223161856,28
599623549230849024,23
599623549238536192,35
599623549246223232,58
599623549253910400,60
599623549261597440,51
599623549269284608,56
599623549276971776,49
599623549284658816,28
599623549292345984,18
599623549300033152,28
599623549307720192,30
599623549315407360,28
599623549323094528,30
599623549330781568,32
599623549338468736,32
599623549346155776,23
599623549353842944,-23
599623549361530112,-123
599623549369217152,-140
599623549376904320,100
599623549384591488,516
599623549392278528,733
599623549399965696,462
599623549407652864,-28
599623549415339904,-200
599623549423027072,-98
599623549430714240,-53
599623549438401280,-30
599623549446088448,21
599623549453775488,11
599623549461462656,-4
599623549469149824,16
599623549476836864,25
599623549484524032,18
599623549492211200,25
599623549499898240,32
599623549507585408,32
599623549515272576,35
599623549522959616,39
599623549530646784,42
599623549538333824,46
599623549546020992,51
599623549553708160,56
599623549561395200,58
599623549569082368,63
599623549576769536,70
599623549584456576,74
599623549592143744,81
599623549599830912,86
599623549607517952,95
599623549615205120,107
599623549622892160,114
599623549630579328,121
599623549638266496,128
599623549645953536,133
599623549653640684,130
599623549661328000,128
599623549669015296,121
599623549676702720,105
599623549684390016,79
599623549692077312,49
599623549699764608,23
599623549707452032,2
599623549715139328,-11
599623549722826624,-21
599623549730513920,-25
599623549738201344,-28
599623549745888640,-30
599623549753575936,-28
599623549761263360,-25
599623549768950656,-21
599623549776637952,-18
599623549784325248,-16
599623549792012672,-11
599623549799699968,-11
599623549807387264,-11
599623549815074560,-9
599623549822761984,-4
599623549830449280,-4
599623549838136576,-2
599623549845824000,0
599623549853511296,0
599623549861198592,4
599623549868885888,7
599623549876573312,9
599623549884260608,9
599623549891947904,14
599623549899635200,14
599623549907322624,11
599623549915009920,14
599623549922697216,16
599623549930384640,16
599623549938071936,16
599623549945759232,16
599623549953446528,18
599623549961133952,21
599623549968821248,21
599623549976508544,18
599623549984195840,18
599623549991883264,21
599623549999570560,21
599623550007257856,21
599623550014945280,21
599623550022632576,23
599623550030319872,21
599623550038007168,21
599623550045694592,23
599623550053381888,23
599623550061069184,25
599623550068756480,25
599623550076443904,23
599623550084131200,23
599623550091818496,25
599623550099505920,25
599623550107193216,25
599623550114880512,28
599623550122567808,25
599623550130255232,28
599623550137942528,25
599623550145629824,25
599623550153317120,23
599623550161004544,23
599623550168691840,23
599623550176379136,25
599623550184066560,25
599623550191753856,25
599623550199441152,23
599623550207128448,25
599623550214815842,28
599623550222503168,25
599623550230190464,25
599623550237877888,30
599623550245565184,30
599623550253252480,28
599623550260939776,28
599623550268627200,28
599623550276314496,25
599623550284001792,25
599623550291689088,28
599623550299376512,28
599623550307063808,28
599623550314751104,25
599623550322438528,25
599623550330125824,42
599623550337813120,60
599623550345500416,58
599623550353187840,51
599623550360875136,49
599623550368562432,35
599623550376249728,18
599623550383937152,23
599623550391624448,32
599623550399311744,28
599623550406999168,28
599623550414686464,30
599623550422373760,30
599623550430061056,28
599623550437748480,16
599623550445435776,-51
599623550453123072,-144
599623550460810368,-77
599623550468497792,247
599623550476185088,593
599623550483872384,579
599623550491559808,156
599623550499247104,-200
599623550506934400,-186
599623550514621696,-84
599623550522309120,-51
599623550529996416,18
599623550537683712,51
599623550545371008,16
599623550553058432,18
599623550560745728,44
599623550568433024,39
599623550576120448,35
599623550583807744,44
599623550591495040,49
599623550599182336,49
599623550606869760,53
599623550614557056,58
599623550622244352,58
599623550629931648,60
599623550637619072,65
599623550645306368,70
599623550652993664,72
599623550660681088,74
599623550668368384,84
599623550676055680,91
599623550683742976,95
599623550691430400,102
599623550699117696,112
599623550706804992,121
599623550714492288,130
599623550722179712,137
599623550729867008,140
599623550737554304,142
599623550745241728,142
599623550752929024,135
599623550760616320,121
599623550768303616,98
599623550775990996,65
599623550783678208,32
599623550791365376,9
599623550799052416,-7
599623550806739584,-18
599623550814426752,-25
599623550822113792,-28
599623550829800960,-25
599623550837488000,-23
599623550845175168,-23
599623550852862336,-21
599623550860549376,-18
599623550868236544,-16
599623550875923712,-14
599623550883610752,-11
