599621529212377600,208
599621529220064384,214
599621529227751040,224
599621529235437696,231
599621529243124480,242
599621529250811136,254
599621529258497920,263
599621529266184576,270
599621529273871232,275
599621529281558016,270
599621529289244672,258
599621529296931328,235
599621529304618112,201
599621529312304768,166
599621529319991552,138
599621529327678208,113
599621529335364864,97
599621529343051648,90
599621529350738304,85
599621529358424960,83
599621529366111744,87
599621529373798400,90
599621529381485184,92
599621529389171840,92
599621529396858496,97
599621529404545280,101
599621529412231936,99
599621529419918592,99
599621529427605376,101
599621529435292032,101
599621529442978816,101
599621529450665472,106
599621529458352128,110
599621529466038912,115
599621529473725568,115
599621529481412224,115
599621529489099008,117
599621529496785664,120
599621529504472448,120
599621529512159104,120
599621529519845760,122
599621529527532544,122
599621529535219200,120
599621529542905856,120
599621529550592640,122
599621529558279296,122
599621529565966080,120
599621529573652736,120
599621529581339392,122
599621529589026176,122
599621529596712832,122
599621529604399488,122
599621529612086272,120
599621529619772928,117
599621529627459712,117
599621529635146368,115
599621529642833024,113
599621529650519808,110
599621529658206464,106
599621529665893120,106
599621529673579904,127
599621529681266560,150
599621529688953344,150
599621529696640036,147
599621529704326656,150
599621529712013312,136
599621529719700096,117
599621529727386752,113
599621529735073408,117
599621529742760192,117
599621529750446848,115
599621529758133632,113
599621529765820288,115
599621529773506944,115
599621529781193728,113
599621529788880384,113
599621529796567040,108
599621529804253824,64
599621529811940480,-48
599621529819627264,-92
599621529827313920,145
599621529835000576,605
599621529842687360,896
599621529850374016,661
599621529858060672,127
599621529865747456,-92
599621529873434112,-9
599621529881120896,18
599621529888807552,46
599621529896494208,124
599621529904180992,120
599621529911867648,83
599621529919554304,101
599621529927241088,115
599621529934927744,106
599621529942614528,113
599621529950301184,122
599621529957987840,120
599621529965674624,124
599621529973361280,131
599621529981047936,129
599621529988734720,129
599621529996421376,134
599621530004108160,140
599621530011794816,152
599621530019481472,161
599621530027168256,168
599621530034854912,175
599621530042541568,180
599621530050228352,182
599621530057915008,196
599621530065601792,212
599621530073288448,221
599621530080975104,226
599621530088661888,233
599621530096348544,231
599621530104035200,214
599621530111721984,189
599621530119408640,154
599621530127095424,110
599621530134782080,76
599621530142468736,57
599621530150155520,41
599621530157842176,32
599621530165528832,32
599621530173215616,32
599621530180902272,32
599621530188589056,36
599621530196275712,41
599621530203962368,43
599621530211649152,46
599621530219335808,50
599621530227022464,48
599621530234709248,50
599621530242395904,55
599621530250082688,60
599621530257769415,62
599621530265456128,64
599621530273142784,67
599621530280829568,69
599621530288516224,73
599621530296202880,73
599621530303889664,76
599621530311576320,78
599621530319263104,76
599621530326949760,78
599621530334636416,83
599621530342323200,83
599621530350009856,80
599621530357696512,80
599621530365383296,83
599621530373069952,85
599621530380756736,85
599621530388443392,83
599621530396130048,85
599621530403816832,90
599621530411503488,90
599621530419190144,87
599621530426876928,85
599621530434563584,83
599621530442250368,78
599621530449937024,80
599621530457623680,85
599621530465310464,106
599621530472997120,124
599621530480683776,124
599621530488370560,124
599621530496057216,117
599621530503744000,104
599621530511430656,92
599621530519117312,92
599621530526804096,94
599621530534490752,92
599621530542177408,92
599621530549864192,92
599621530557550848,94
599621530565237632,92
599621530572924288,94
599621530580610944,99
599621530588297728,90
599621530595984384,30
599621530603671040,-78
599621530611357824,-80
599621530619044480,201
599621530626731264,640
599621530634417920,813
599621530642104576,466
599621530649791360,-18
599621530657478016,-122
599621530665164672,-23
599621530672851456,-6
599621530680538112,55
599621530688224896,136
599621530695911552,108
599621530703598208,83
599621530711284992,108
599621530718971648,117
599621530726658304,108
599621530734345088,115
599621530742031744,120
599621530749718528,122
599621530757405184,127
599621530765091840,131
599621530772778624,134
599621530780465280,140
599621530788151936,145
599621530795838720,147
599621530803525376,154
599621530811212160,164
599621530818898794,171
599621530826585472,177
599621530834272128,187
599621530841958912,198
599621530849645568,208
599621530857332224,214
599621530865019008,221
599621530872705664,231
599621530880392448,231
599621530888079104,219
599621530895765760,198
599621530903452544,168
599621530911139200,127
599621530918825856,90
599621530926512640,62
599621530934199296,39
599621530941886080,25
599621530949572736,20
599621530957259392,18
599621530964946176,20
599621530972632832,25
599621530980319488,27
599621530988006272,30
599621530995692928,34
599621531003379712,34
599621531011066368,36
599621531018753024,41
599621531026439808,43
599621531034126464,43
599621531041813120,46
599621531049499904,50
599621531057186560,55
599621531064873344,55
599621531072560000,60
599621531080246656,62
599621531087933440,64
599621531095620096,67
599621531103306752,69
599621531110993536,71
599621531118680192,71
599621531126366976,69
599621531134053632,71
599621531141740288,76
599621531149427072,76
599621531157113728,76
599621531164800384,76
599621531172487168,78
599621531180173824,78
599621531187860608,76
599621531195547264,76
599621531203233920,76
599621531210920704,71
599621531218607360,83
599621531226294016,108
599621531233980800,117
599621531241667456,113
599621531249354240,110
599621531257040896,101
599621531264727552,87
599621531272414336,80
599621531280100992,78
599621531287787648,80
599621531295474432,83
599621531303161088,83
599621531310847872,83
599621531318534528,83
599621531326221184,83
599621531333907968,83
599621531341594624,85
599621531349281280,73
599621531356968064,4
599621531364654720,-94
599621531372341504,-39
599621531380028173,279
599621531387714816,661
599621531395401472,693
599621531403088256,284
599621531410774912,-73
599621531418461568,-78
599621531426148352,-13
599621531433835008,-2
599621531441521792,80
599621531449208448,127
599621531456895104,85
599621531464581888,80
599621531472268544,108
599621531479955200,106
599621531487641984,101
599621531495328640,110
599621531503015424,115
599621531510702080,115
599621531518388736,117
599621531526075520,124
599621531533762176,129
599621531541448832,131
599621531549135616,136
599621531556822272,143
599621531564509056,145
599621531572195712,152
599621531579882368,161
599621531587569152,168
599621531595255808,177
599621531602942464,184
599621531610629248,194
599621531618315904,201
599621531626002688,208
599621531633689344,212
599621531641376000,212
599621531649062784,203
599621531656749440,180
599621531664436096,147
599621531672122880,108
599621531679809536,78
599621531687496320,60
599621531695182976,43
599621531702869632,30
599621531710556416,25
599621531718243072,32
599621531725929728,32
599621531733616512,32
599621531741303168,34
599621531748989952,39
599621531756676608,39
599621531764363264,43
599621531772050048,46
599621531779736704,48
599621531787423360,48
599621531795110144,48
599621531802796800,50
599621531810483584,55
599621531818170240,57
599621531825856896,60
599621531833543680,62
599621531841230336,67
599621531848916992,69
599621531856603776,67
599621531864290432,69
599621531871977216,69
599621531879663872,69
599621531887350528,71
599621531895037312,73
599621531902723968,73
599621531910410624,71
599621531918097408,71
599621531925784064,71
599621531933470848,73
599621531941157552,73
599621531948844160,71
599621531956530816,71
599621531964217600,69
599621531971904256,67
599621531979590912,69
599621531987277696,67
599621531994964352,60
599621532002651136,62
599621532010337792,83
599621532018024448,99
599621532025711232,97
599621532033397888,101
599621532041084544,101
599621532048771328,83
599621532056457984,69
599621532064144768,67
599621532071831424,69
599621532079518080,67
599621532087204864,67
599621532094891520,67
599621532102578176,69
599621532110264960,69
599621532117951616,69
599621532125638400,69
599621532133325056,69
599621532141011712,41
599621532148698496,-48
599621532156385152,-124
599621532164071808,16
599621532171758592,404
599621532179445248,751
599621532187132032,663
599621532194818688,203
599621532202505344,-87
599621532210192128,-50
599621532217878784,-4
599621532225565440,9
599621532233252224,71
599621532240938880,83
599621532248625664,50
599621532256312320,60
599621532263998976,78
599621532271685760,71
599621532279372416,73
599621532287059072,80
599621532294745856,80
599621532302432512,83
599621532310119296,87
599621532317805952,92
599621532325492608,92
599621532333179392,97
599621532340866048,101
599621532348552704,106
599621532356239488,108
599621532363926144,115
599621532371612928,122
599621532379299584,129
599621532386986240,138
599621532394673024,145
599621532402359680,154
599621532410046336,164
599621532417733120,171
599621532425419776,175
599621532433106560,177
599621532440793216,166
599621532448479872,143
599621532456166656,113
599621532463853312,76
599621532471539968,48
599621532479226752,27
599621532486913408,13
599621532494600192,6
599621532502286935,2
599621532509973376,2
599621532517659776,4
599621532525346176,6
599621532533032704,11
599621532540719104,16
599621532548405504,18
599621532556091904,18
599621532563778304,20
599621532571464832,23
599621532579151232,25
599621532586837632,27
599621532594524032,30
599621532602210432,27
599621532609896960,27
599621532617583360,30
599621532625269760,32
599621532632956160,34
599621532640642560,36
599621532648329088,36
599621532656015488,36
599621532663701888,39
599621532671388288,41
599621532679074688,41
599621532686761216,41
599621532694447616,43
599621532702134016,43
599621532709820416,43
599621532717506816,46
599621532725193216,46
599621532732879744,46
599621532740566144,46
599621532748252544,48
599621532755938944,48
599621532763625344,48
599621532771311872,48
599621532778998272,48
599621532786684672,50
599621532794371072,50
599621532802057472,50
599621532809744000,53
599621532817430400,53
599621532825116800,53
599621532832803200,55
599621532840489600,55
599621532848176128,53
599621532855862528,53
599621532863548928,55
599621532871235328,57
599621532878921728,57
599621532886608256,57
599621532894294656,60
599621532901981056,57
599621532909667456,57
599621532917353856,60
599621532925040384,60
599621532932726784,60
599621532940413184,62
599621532948099584,62
599621532955785984,60
599621532963472512,57
599621532971158912,57
599621532978845312,60
599621532986531712,62
599621532994218112,60
599621533001904640,60
599621533009591040,62
599621533017277440,62
599621533024963840,62
599621533032650240,62
599621533040336768,64
599621533048023168,62
599621533055709568,64
599621533063395970,67
599621533071082496,67
599621533078769024,64
599621533086455680,64
599621533094142208,67
599621533101828736,67
599621533109515264,64
599621533117201920,67
599621533124888448,67
599621533132574976,64
599621533140261632,62
599621533147948160,60
599621533155634688,53
599621533163321216,57
599621533171007872,80
599621533178694400,99
599621533186380928,99
599621533194067584,94
599621533201754112,92
599621533209440640,83
599621533217127168,67
599621533224813824,57
599621533232500352,62
599621533240186880,67
599621533247873536,64
599621533255560064,62
599621533263246592,64
599621533270933120,64
599621533278619776,64
599621533286306304,64
599621533293992832,39
599621533301679488,-53
599621533309366016,-147
599621533317052544,-27
599621533324739072,379
599621533332425728,806
599621533340112256,818
599621533347798784,353
599621533355485440,-36
599621533363171968,-50
599621533370858496,4
599621533378545024,0
599621533386231680,39
599621533393918208,55
599621533401604736,27
599621533409291392,32
599621533416977920,53
599621533424664448,50
599621533432350976,48
599621533440037632,57
599621533447724160,60
599621533455410688,60
599621533463097344,62
599621533470783872,64
599621533478470400,69
599621533486156928,76
599621533493843584,78
599621533501530112,80
599621533509216640,87
599621533516903296,92
599621533524589824,97
599621533532276352,101
599621533539962880,106
599621533547649536,113
599621533555336064,122
599621533563022592,129
599621533570709248,136
599621533578395776,145
599621533586082304,147
599621533593768832,150
599621533601455488,147
599621533609142016,136
599621533616828544,113
599621533624515175,87
599621533632201856,60
599621533639888512,39
599621533647575296,27
599621533655261952,16
599621533662948608,9
599621533670635392,6
599621533678322048,4
599621533686008832,6
599621533693695488,9
599621533701382144,13
599621533709068928,16
599621533716755584,20
599621533724442240,20
599621533732129024,23
599621533739815680,25
599621533747502464,27
599621533755189120,30
599621533762875776,32
599621533770562560,34
599621533778249216,34
599621533785935872,36
599621533793622656,39
599621533801309312,39
599621533808996096,39
599621533816682752,41
599621533824369408,41
599621533832056192,41
599621533839742848,41
599621533847429504,43
599621533855116288,43
599621533862802944,43
599621533870489728,48
599621533878176384,48
599621533885863040,46
599621533893549824,46
599621533901236480,48
599621533908923136,46
599621533916609920,46
599621533924296576,48
599621533931983360,48
599621533939670016,48
599621533947356672,50
599621533955043456,50
599621533962730112,48
599621533970416768,48
599621533978103552,46
599621533985790208,48
599621533993476992,50
599621534001163648,50
599621534008850304,48
599621534016537088,53
599621534024223744,53
599621534031910400,50
599621534039597184,53
599621534047283840,53
599621534054970624,53
599621534062657280,55
599621534070343936,55
599621534078030720,60
599621534085717376,57
599621534093404032,55
599621534101090816,57
599621534108777472,57
599621534116464256,57
599621534124150912,57
599621534131837568,57
599621534139524352,57
599621534147211008,60
599621534154897664,62
599621534162584448,60
599621534170271104,53
599621534177957888,48
599621534185644554,60
599621534193331200,83
599621534201017856,97
599621534208704640,94
599621534216391296,90
599621534224077952,83
599621534231764736,67
599621534239451392,55
599621534247138176,55
599621534254824832,60
599621534262511488,60
599621534270198272,57
599621534277884928,60
599621534285571584,60
599621534293258368,60
599621534300945024,60
599621534308631808,53
599621534316318464,11
599621534324005120,-94
599621534331691904,-143
599621534339378560,76
599621534347065216,513
599621534354752000,792
599621534362438656,577
599621534370125440,71
599621534377812096,-154
599621534385498752,-78
599621534393185536,-39
599621534400872192,-2
599621534408558848,78
599621534416245632,76
599621534423932288,41
599621534431619072,60
599621534439305728,76
599621534446992384,67
599621534454679168,69
599621534462365824,78
599621534470052480,78
599621534477739264,78
599621534485425920,83
599621534493112704,87
599621534500799360,92
599621534508486016,94
599621534516172800,99
599621534523859456,104
599621534531546112,108
599621534539232896,120
599621534546919552,129
599621534554606336,131
599621534562292992,140
599621534569979648,152
599621534577666432,161
599621534585353088,166
599621534593039744,175
599621534600726528,180
599621534608413184,180
599621534616099968,173
599621534623786624,154
599621534631473280,127
599621534639160064,90
599621534646846720,53
599621534654533376,30
599621534662220160,11
599621534669906816,-2
599621534677593600,-4
599621534685280256,-6
599621534692966912,-9
599621534700653696,-6
599621534708340352,-2
599621534716027008,2
599621534723713792,6
599621534731400448,9
599621534739087232,9
599621534746773933,9
599621534754460544,13
599621534762147200,16
599621534769833984,18
599621534777520640,18
599621534785207296,20
599621534792894080,23
599621534800580736,27
599621534808267520,30
599621534815954176,32
599621534823640832,34
599621534831327616,32
599621534839014272,32
599621534846700928,34
599621534854387712,36
599621534862074368,36
599621534869761152,39
599621534877447808,36
599621534885134464,39
599621534892821248,41
599621534900507904,41
599621534908194560,41
599621534915881344,43
599621534923568000,41
599621534931254784,43
599621534938941440,48
599621534946628096,46
599621534954314880,46
599621534962001536,48
599621534969688192,50
599621534977374976,46
599621534985061632,46
599621534992748416,46
599621535000435072,43
599621535008121728,46
599621535015808512,50
599621535023495168,48
599621535031181824,48
599621535038868608,50
599621535046555264,50
599621535054242048,50
599621535061928704,53
599621535069615360,50
599621535077302144,50
599621535084988800,48
599621535092675456,53
599621535100362240,73
599621535108048896,90
599621535115735680,87
599621535123422336,83
599621535131108992,80
599621535138795776,71
599621535146482432,60
599621535154169088,50
599621535161855872,53
599621535169542528,57
599621535177229312,55
599621535184915968,53
599621535192602624,53
599621535200289408,55
599621535207976064,57
599621535215662720,57
599621535223349504,53
599621535231036160,6
599621535238722944,-94
599621535246409600,-117
599621535254096256,115
599621535261783040,520
599621535269469696,707
599621535277156352,427
599621535284843136,-6
599621535292529792,-124
599621535300216576,-53
599621535307903316,-36
599621535315589760,20
599621535323276160,97
599621535330962432,76
599621535338648832,53
599621535346335232,76
599621535354021504,80
599621535361707904,73
599621535369394304,80
599621535377080576,87
599621535384766976,85
599621535392453376,87
599621535400139648,92
599621535407826048,97
599621535415512320,99
599621535423198720,106
599621535430885120,108
599621535438571392,113
599621535446257792,120
599621535453944192,127
599621535461630464,134
599621535469316864,140
599621535477003264,147
599621535484689536,157
599621535492375936,164
599621535500062336,171
599621535507748608,175
599621535515435008,180
599621535523121408,180
599621535530807680,171
599621535538494080,147
599621535546180480,113
599621535553866752,78
599621535561553152,50
599621535569239552,25
599621535576925824,11
599621535584612224,4
599621535592298496,0
599621535599984896,-2
599621535607671296,0
599621535615357568,2
599621535623043968,4
599621535630730368,6
599621535638416640,11
599621535646103040,11
599621535653789440,13
599621535661475712,16
599621535669162112,18
599621535676848512,25
599621535684534784,25
599621535692221184,25
599621535699907584,27
599621535707593856,30
599621535715280256,32
599621535722966656,36
599621535730652928,39
599621535738339328,39
599621535746025728,41
599621535753712000,43
599621535761398400,46
599621535769084672,46
599621535776771072,48
599621535784457472,48
599621535792143744,50
599621535799830144,50
599621535807516544,48
599621535815202816,48
599621535822889216,50
599621535830575616,50
599621535838261888,50
599621535845948288,53
599621535853634688,53
599621535861320960,53
599621535869007264,53
599621535876694016,53
599621535884380800,53
599621535892067584,53
599621535899754368,53
599621535907441152,53
599621535915127936,50
599621535922814720,50
599621535930501376,48
599621535938188160,46
599621535945874944,53
599621535953561728,73
599621535961248512,85
599621535968935296,83
599621535976622080,83
599621535984308864,80
599621535991995648,64
599621535999682432,48
599621536007369216,43
599621536015056000,48
599621536022742656,48
599621536030429440,48
599621536038116224,48
599621536045803008,50
599621536053489792,53
599621536061176576,53
599621536068863360,50
599621536076550144,43
599621536084236928,-9
599621536091923712,-113
599621536099610496,-120
599621536107297280,143
599621536114983936,575
599621536122670720,785
599621536130357504,499
599621536138044288,30
599621536145731072,-113
599621536153417856,-39
599621536161104640,-23
599621536168791424,9
599621536176478208,67
599621536184164992,50
599621536191851776,30
599621536199538560,48
599621536207225216,55
599621536214912000,50
599621536222598784,57
599621536230285568,62
599621536237972352,64
599621536245659136,69
599621536253345920,73
599621536261032704,76
599621536268719488,80
599621536276406272,85
599621536284093056,87
599621536291779840,92
599621536299466496,99
599621536307153280,106
599621536314840064,110
599621536322526848,117
599621536330213632,127
599621536337900416,136
599621536345587200,147
599621536353273984,154
599621536360960768,164
599621536368647552,168
599621536376334336,166
599621536384021120,157
599621536391707904,136
599621536399394560,106
599621536407081344,71
599621536414768128,41
599621536422454912,20
599621536430141730,9
599621536437828224,0
599621536445514752,-4
599621536453201408,-6
599621536460887936,-4
599621536468574464,2
599621536476260992,4
599621536483947648,4
599621536491634176,4
599621536499320704,6
599621536507007360,11
599621536514693888,13
599621536522380416,13
599621536530066944,13
599621536537753600,16
599621536545440128,16
599621536553126656,18
599621536560813312,23
599621536568499840,25
599621536576186368,27
599621536583872896,30
599621536591559552,32
599621536599246080,32
599621536606932608,34
599621536614619264,36
599621536622305792,39
599621536629992320,39
599621536637678848,39
599621536645365504,41
599621536653052032,43
599621536660738560,43
599621536668425216,43
599621536676111744,46
599621536683798272,43
599621536691484800,46
599621536699171456,48
599621536706857984,46
599621536714544512,46
599621536722231168,50
599621536729917696,48
599621536737604224,48
599621536745290752,50
599621536752977408,50
599621536760663936,50
599621536768350464,53
599621536776037120,50
599621536783723648,53
599621536791410176,53
599621536799096704,53
599621536806783360,53
599621536814469888,53
599621536822156416,53
599621536829843072,53
599621536837529600,53
599621536845216128,53
599621536852902656,55
599621536860589312,53
599621536868275840,53
599621536875962368,53
599621536883649024,50
599621536891335552,46
599621536899022080,46
599621536906708608,67
599621536914395264,90
599621536922081792,90
599621536929768320,87
599621536937454976,90
599621536945141504,83
599621536952828032,64
599621536960514560,53
599621536968201216,55
599621536975887744,57
599621536983574272,55
599621536991260935,55
599621536998947584,53
599621537006634240,53
599621537014321024,53
599621537022007680,53
599621537029694336,50
599621537037381120,13
599621537045067776,-90
599621537052754560,-157
599621537060441216,18
599621537068127872,455
599621537075814656,836
599621537083501312,741
599621537091187968,244
599621537098874752,-73
599621537106561408,-53
599621537114248192,-18
599621537121934848,-9
599621537129621504,39
599621537137308288,36
599621537144994944,11
599621537152681600,27
599621537160368384,41
599621537168055040,34
599621537175741824,39
599621537183428480,50
599621537191115136,50
599621537198801920,53
599621537206488576,60
599621537214175232,62
599621537221862016,64
599621537229548672,69
599621537237235456,76
599621537244922112,78
599621537252608768,83
599621537260295552,90
599621537267982208,94
599621537275668864,99
599621537283355648,110
599621537291042304,120
599621537298729088,127
599621537306415744,136
599621537314102400,145
599621537321789184,152
599621537329475840,157
599621537337162496,157
599621537344849280,145
599621537352535936,122
599621537360222720,92
599621537367909376,62
599621537375596032,36
599621537383282816,20
599621537390969472,6
599621537398656128,-2
599621537406342912,-2
599621537414029568,-2
599621537421716352,0
599621537429403008,2
599621537437089664,4
599621537444776448,9
599621537452463104,11
599621537460149760,13
599621537467836544,16
599621537475523200,20
599621537483209984,23
599621537490896640,23
599621537498583296,23
599621537506270080,23
599621537513956736,25
599621537521643392,27
599621537529330176,30
599621537537016832,32
599621537544703616,32
599621537552390314,32
599621537560076928,34
599621537567763584,36
599621537575450368,36
599621537583137024,36
599621537590823680,41
599621537598510464,41
599621537606197120,36
599621537613883904,39
599621537621570560,41
599621537629257216,41
599621537636944000,41
599621537644630656,41
599621537652317312,43
599621537660004096,43
599621537667690752,43
599621537675377536,43
599621537683064192,43
599621537690750848,41
599621537698437632,43
599621537706124288,43
599621537713810944,43
599621537721497728,43
599621537729184384,46
599621537736871168,46
599621537744557824,46
599621537752244480,48
599621537759931264,46
599621537767617920,48
599621537775304576,48
599621537782991360,46
599621537790678016,48
599621537798364800,50
599621537806051456,48
599621537813738112,48
599621537821424896,50
599621537829111552,50
599621537836798208,48
599621537844484992,50
599621537852171648,53
599621537859858432,50
599621537867545088,50
599621537875231744,48
599621537882918528,43
599621537890605184,41
599621537898291840,48
599621537905978624,71
599621537913665280,87
599621537921352064,83
599621537929038720,83
599621537936725376,80
599621537944412160,67
599621537952098816,50
599621537959785472,46
599621537967472256,48
599621537975158912,50
599621537982845696,48
599621537990532352,48
599621537998219008,48
599621538005905792,48
599621538013592448,46
599621538021279104,46
599621538028965888,36
599621538036652544,-30
599621538044339328,-145
599621538052025984,-127
599621538059712640,187
599621538067399424,642
599621538075086080,827
599621538082772736,478
599621538090459520,-20
599621538098146176,-145
599621538105832960,-57
599621538113519693,-46
599621538121206400,0
599621538128893056,62
599621538136579840,39
599621538144266496,20
599621538151953152,43
599621538159639936,48
599621538167326592,41
599621538175013376,48
599621538182700032,55
599621538190386688,55
599621538198073472,60
599621538205760128,62
599621538213446784,69
599621538221133568,73
599621538228820224,78
599621538236507008,83
599621538244193664,87
599621538251880320,94
599621538259567104,101
599621538267253760,110
599621538274940416,120
599621538282627200,127
599621538290313856,134
599621538298000640,145
599621538305687296,154
599621538313373952,161
599621538321060736,166
599621538328747392,166
599621538336434048,159
599621538344120832,138
599621538351807488,108
599621538359494272,71
599621538367180928,41
599621538374867584,16
599621538382554368,-2
599621538390241024,-11
599621538397927680,-18
599621538405614464,-18
599621538413301120,-18
599621538420987904,-16
599621538428674560,-13
599621538436361216,-9
599621538444048000,-6
599621538451734656,-4
599621538459421312,-2
599621538467108096,0
599621538474794752,4
599621538482481536,6
599621538490168192,11
599621538497854848,13
599621538505541632,11
599621538513228288,11
599621538520914944,13
599621538528601728,18
599621538536288384,20
599621538543975168,20
599621538551661824,23
599621538559348480,25
599621538567035264,25
599621538574721920,30
599621538582408576,30
599621538590095360,27
599621538597782016,30
599621538605468800,32
599621538613155456,32
599621538620842112,32
599621538628528896,32
599621538636215552,34
599621538643902208,36
599621538651588992,34
599621538659275648,34
599621538666962432,36
599621538674649072,39
599621538682335488,34
599621538690021888,36
599621538697708160,41
599621538705394560,39
599621538713080960,34
599621538720767232,36
599621538728453632,39
599621538736140032,39
599621538743826304,36
599621538751512704,39
599621538759199104,41
599621538766885376,41
599621538774571776,41
599621538782258048,41
599621538789944448,43
599621538797630848,41
599621538805317120,41
599621538813003520,43
599621538820689920,43
599621538828376192,46
599621538836062592,43
599621538843748992,36
599621538851435264,34
599621538859121664,46
599621538866808064,67
599621538874494336,78
599621538882180736,76
599621538889867136,76
599621538897553408,69
599621538905239808,53
599621538912926208,46
599621538920612480,46
599621538928298880,43
599621538935985280,41
599621538943671552,41
599621538951357952,43
599621538959044224,43
599621538966730624,43
599621538974417024,46
599621538982103296,46
599621538989789696,25
599621538997476096,-60
599621539005162368,-152
599621539012848768,-60
599621539020535168,300
599621539028221440,670
599621539035907840,633
599621539043594240,184
599621539051280512,-143
599621539058966912,-120
599621539066653312,-64
599621539074339584,-43
599621539082025984,48
599621539089712384,83
599621539097398656,39
599621539105085056,43
599621539112771456,69
599621539120457728,62
599621539128144128,60
599621539135830400,69
599621539143516800,73
599621539151203200,73
599621539158889472,80
599621539166575872,83
599621539174262272,85
599621539181948544,92
599621539189634944,97
599621539197321344,97
599621539205007616,104
599621539212694016,113
599621539220380416,117
599621539228066688,127
599621539235753024,138
599621539243439616,143
599621539251126272,150
599621539258812928,164
599621539266499456,173
599621539274186112,175
599621539281872768,177
599621539289559424,175
599621539297246080,161
599621539304932736,129
599621539312619264,90
599621539320305920,53
599621539327992576,25
599621539335679232,4
599621539343365888,-9
599621539351052544,-16
599621539358739072,-18
599621539366425728,-18
599621539374112384,-16
599621539381799040,-13
599621539389485696,-11
599621539397172352,-9
599621539404858880,-4
599621539412545536,0
599621539420232192,2
599621539427918848,2
599621539435605504,4
599621539443292160,9
599621539450978688,11
599621539458665344,13
599621539466352000,16
599621539474038656,20
599621539481725312,20
599621539489411968,25
599621539497098496,27
599621539504785152,27
599621539512471808,27
599621539520158464,30
599621539527845120,30
599621539535531776,30
599621539543218304,32
599621539550904960,34
599621539558591616,32
599621539566278272,34
599621539573964928,39
599621539581651456,36
599621539589338112,36
599621539597024768,39
599621539604711424,39
599621539612398080,39
599621539620084736,39
599621539627771264,41
599621539635457920,43
599621539643144576,46
599621539650831232,43
599621539658517888,43
599621539666204544,46
599621539673891072,48
599621539681577728,48
599621539689264384,50
599621539696951040,48
599621539704637696,50
599621539712324352,48
599621539720010880,41
599621539727697536,46
599621539735384192,69
599621539743070848,85
599621539750757504,83
599621539758444160,80
599621539766130688,78
599621539773817344,64
599621539781504000,53
599621539789190656,50
599621539796877316,48
599621539804563968,48
599621539812250624,53
599621539819937408,53
599621539827624064,50
599621539835310720,48
599621539842997504,53
599621539850684160,53
599621539858370944,41
599621539866057600,-9
599621539873744256,-108
599621539881431040,-110
599621539889117696,150
599621539896804352,556
599621539904491136,723
599621539912177792,420
599621539919864576,-9
599621539927551232,-117
599621539935237888,-46
599621539942924672,-27
599621539950611328,18
599621539958297984,73
599621539965984768,50
599621539973671424,34
599621539981358208,57
599621539989044864,62
599621539996731520,55
599621540004418304,64
599621540012104960,67
599621540019791616,62
599621540027478400,69
599621540035165056,76
599621540042851840,76
599621540050538496,78
599621540058225152,85
599621540065911936,90
599621540073598592,94
599621540081285248,99
599621540088972032,106
599621540096658688,110
599621540104345472,117
599621540112032128,127
599621540119718784,136
599621540127405568,145
599621540135092224,152
599621540142778880,159
599621540150465664,168
599621540158152320,166
599621540165839104,157
599621540173525760,136
599621540181212416,106
599621540188899200,71
599621540196585856,43
599621540204272512,20
599621540211959296,4
599621540219645952,-4
599621540227332736,-4
599621540235019392,-4
599621540242706048,-6
599621540250392832,-4
599621540258079488,-2
599621540265766144,2
599621540273452928,2
599621540281139584,4
599621540288826368,9
599621540296513024,11
599621540304199680,11
599621540311886464,11
599621540319573120,13
599621540327259776,18
599621540334946560,18
599621540342633216,18
599621540350320000,23
599621540358006695,27
599621540365693312,27
599621540373379968,27
599621540381066752,32
599621540388753408,34
599621540396440064,32
599621540404126848,32
599621540411813504,36
599621540419500288,39
599621540427186944,34
599621540434873600,34
599621540442560384,36
599621540450247040,34
599621540457933696,34
599621540465620480,36
599621540473307136,39
599621540480993920,39
599621540488680576,39
599621540496367232,39
599621540504054016,39
599621540511740672,36
599621540519427328,34
599621540527114112,36
599621540534800768,39
599621540542487552,36
599621540550174208,36
599621540557860864,39
599621540565547648,41
599621540573234304,41
599621540580920960,41
599621540588607744,41
599621540596294400,41
599621540603981184,41
599621540611667840,41
599621540619354496,39
599621540627041280,34
599621540634727936,32
599621540642414592,50
599621540650101376,73
599621540657788032,78
599621540665474816,76
599621540673161472,76
599621540680848128,69
599621540688534912,53
599621540696221568,41
599621540703908224,41
599621540711595008,46
599621540719281664,46
599621540726968448,43
599621540734655104,43
599621540742341760,43
599621540750028544,46
599621540757715200,46
599621540765401856,43
599621540773088640,20
599621540780775296,-71
599621540788462080,-161
599621540796148736,-41
599621540803835392,355
599621540811522176,767
599621540819208832,769
599621540826895488,307
599621540834582272,-76
599621540842268928,-78
599621540849955712,-23
599621540857642368,-25
599621540865329024,27
599621540873015808,48
599621540880702464,13
599621540888389120,20
599621540896075904,41
599621540903762560,36
599621540911449344,34
599621540919136074,46
599621540926822784,50
599621540934509440,50
599621540942196224,53
599621540949882880,57
599621540957569536,60
599621540965256320,62
599621540972942976,69
599621540980629760,73
599621540988316416,78
599621540996003072,80
599621541003689856,87
599621541011376512,94
599621541019063168,101
599621541026749952,108
599621541034436608,117
599621541042123392,127
599621541049810048,136
599621541057496704,143
599621541065183488,147
599621541072870144,145
599621541080556800,136
599621541088243584,113
599621541095930240,83
599621541103617024,53
599621541111303680,30
599621541118990336,9
599621541126677120,-4
599621541134363776,-9
599621541142050432,-16
599621541149737216,-18
599621541157423872,-13
599621541165110656,-9
599621541172797312,-6
599621541180483968,-4
599621541188170752,0
599621541195857408,2
599621541203544064,2
599621541211230848,6
599621541218917504,11
599621541226604288,11
599621541234290944,11
599621541241977600,13
599621541249664384,16
599621541257351040,18
599621541265037696,18
599621541272724480,20
599621541280411136,23
599621541288097920,25
599621541295784576,25
599621541303471232,27
599621541311158016,30
599621541318844672,30
599621541326531328,32
599621541334218112,32
599621541341904768,32
599621541349591552,30
599621541357278208,32
599621541364964864,34
599621541372651648,34
599621541380338304,34
599621541388024960,34
599621541395711744,34
599621541403398400,36
599621541411085184,36
599621541418771840,39
599621541426458496,39
599621541434145280,34
599621541441831936,34
599621541449518592,39
599621541457205376,39
599621541464892032,36
599621541472578816,36
599621541480265453,39
599621541487952128,41
599621541495638784,39
599621541503325568,39
599621541511012224,41
599621541518698880,41
599621541526385664,39
599621541534072320,36
599621541541759104,36
599621541549445760,36
599621541557132416,36
599621541564819200,39
599621541572505856,39
599621541580192512,39
599621541587879296,41
599621541595565952,39
599621541603252736,36
599621541610939392,39
599621541618626048,41
599621541626312832,39
599621541633999488,39
599621541641686144,39
599621541649372928,32
599621541657059584,27
599621541664746368,50
599621541672433024,78
599621541680119680,78
599621541687806464,69
599621541695493120,73
599621541703179776,69
599621541710866560,48
599621541718553216,34
599621541726240000,36
599621541733926656,41
599621541741613312,39
599621541749300096,39
599621541756986752,41
599621541764673408,39
599621541772360192,36
599621541780046848,41
599621541787733632,39
599621541795420288,-6
599621541803106944,-120
599621541810793728,-171
599621541818480384,50
599621541826167040,515
599621541833853824,848
599621541841540480,667
599621541849227264,140
599621541856913920,-129
599621541864600576,-73
599621541872287360,-46
599621541879974016,-30
599621541887660672,34
599621541895347456,34
599621541903034112,4
599621541910720896,20
599621541918407552,32
599621541926094208,27
599621541933780992,32
599621541941467648,41
599621541949154304,43
599621541956841088,46
599621541964527744,48
599621541972214528,53
599621541979901184,57
599621541987587840,64
599621541995274624,71
599621542002961280,71
599621542010647936,76
599621542018334720,85
599621542026021376,92
599621542033708160,94
599621542041394832,104
599621542049081472,117
599621542056768128,127
599621542064454912,129
599621542072141568,136
599621542079828224,145
599621542087515008,147
599621542095201664,145
599621542102888448,134
599621542110575104,108
599621542118261760,76
599621542125948544,46
599621542133635200,18
599621542141321856,-2
599621542149008640,-16
599621542156695296,-25
599621542164382080,-27
599621542172068736,-25
599621542179755392,-23
599621542187442176,-23
599621542195128832,-20
599621542202815488,-18
599621542210502272,-16
599621542218188928,-9
599621542225875712,-4
599621542233562368,-6
599621542241249024,-6
599621542248935808,-2
599621542256622464,0
599621542264309120,4
599621542271995904,9
599621542279682560,11
599621542287369344,9
599621542295056000,11
599621542302742656,16
599621542310429440,16
599621542318116096,16
599621542325802752,18
599621542333489536,23
599621542341176192,23
599621542348862976,20
599621542356549632,23
599621542364236288,23
599621542371923072,23
599621542379609728,23
599621542387296384,23
599621542394983168,25
599621542402669824,25
599621542410356608,25
599621542418043264,27
599621542425729920,30
599621542433416704,27
599621542441103360,25
599621542448790016,27
599621542456476800,27
599621542464163456,27
599621542471850240,27
599621542479536896,27
599621542487223552,30
599621542494910336,30
599621542502596992,30
599621542510283648,30
599621542517970432,30
599621542525657088,27
599621542533343872,25
599621542541030528,27
599621542548717184,20
599621542556403968,20
599621542564090624,43
599621542571777280,62
599621542579464064,62
599621542587150720,60
599621542594837504,60
599621542602524215,46
599621542610210816,25
599621542617897472,25
599621542625584256,30
599621542633270912,27
599621542640957568,25
599621542648644352,27
599621542656331008,25
599621542664017792,27
599621542671704448,32
599621542679391104,30
599621542687077888,20
599621542694764544,-20
599621542702451200,-124
599621542710137984,-166
599621542717824640,55
599621542725511424,473
599621542733198080,718
599621542740884736,473
599621542748571520,-4
599621542756258176,-182
599621542763944832,-108
599621542771631616,-83
599621542779318272,-27
599621542787005056,64
599621542794691712,53
599621542802378368,18
599621542810065152,41
599621542817751808,53
599621542825438464,41
599621542833125248,50
599621542840811904,62
599621542848498688,57
599621542856185344,60
599621542863872000,69
599621542871558784,71
599621542879245440,73
599621542886932096,80
599621542894618880,85
599621542902305536,90
599621542909992320,97
599621542917678976,104
599621542925365632,113
599621542933052416,120
599621542940739072,129
599621542948425728,136
599621542956112512,147
599621542963799168,159
599621542971485952,168
599621542979172608,171
599621542986859264,171
599621542994546048,159
599621543002232704,138
599621543009919360,101
599621543017606144,57
599621543025292800,25
599621543032979584,2
599621543040666240,-18
599621543048352896,-32
599621543056039680,-36
599621543063726336,-39
599621543071412992,-34
599621543079099776,-30
599621543086786432,-32
599621543094473216,-32
599621543102159872,-25
599621543109846528,-20
599621543117533312,-18
599621543125219968,-16
599621543132906624,-16
599621543140593408,-13
599621543148280064,-9
599621543155966848,-9
599621543163653594,-6
599621543171340288,-2
599621543179026944,2
599621543186713728,4
599621543194400384,4
599621543202087040,6
599621543209773824,9
599621543217460480,11
599621543225147264,13
599621543232833920,13
599621543240520576,13
599621543248207360,13
599621543255894016,18
599621543263580672,18
599621543271267456,18
599621543278954112,18
599621543286640896,23
599621543294327552,23
599621543302014208,20
599621543309700992,23
599621543317387648,25
599621543325074304,27
599621543332761088,27
599621543340447744,25
599621543348134528,27
599621543355821184,30
599621543363507840,30
599621543371194624,30
599621543378881280,30
599621543386567936,30
599621543394254720,27
599621543401941376,25
599621543409628160,27
599621543417314816,46
599621543425001472,67
599621543432688256,69
599621543440374912,67
599621543448061568,62
599621543455748352,53
599621543463435008,36
599621543471121792,30
599621543478808448,32
599621543486495104,34
599621543494181888,32
599621543501868544,32
599621543509555200,34
599621543517241984,36
599621543524928640,36
599621543532615424,36
599621543540302080,34
599621543547988736,4
599621543555675520,-90
599621543563362176,-152
599621543571048832,9
599621543578735616,392
599621543586422272,667
599621543594109056,499
599621543601795712,60
599621543609482368,-140
599621543617169152,-83
599621543624855808,-55
599621543632542464,-18
599621543640229248,62
599621543647915904,62
599621543655602688,30
599621543663289344,43
599621543670976000,57
599621543678662784,50
599621543686349440,55
599621543694036096,64
599621543701722880,64
599621543709409536,67
599621543717096320,69
599621543724782973,71
599621543732469632,76
599621543740156288,80
599621543747843072,85
599621543755529728,90
599621543763216384,94
599621543770903168,101
599621543778589824,108
599621543786276608,113
599621543793963264,120
599621543801649920,131
599621543809336704,140
599621543817023360,145
599621543824710016,154
599621543832396800,161
599621543840083456,164
599621543847770240,159
599621543855456896,138
599621543863143552,106
599621543870830336,73
599621543878516992,41
599621543886203648,18
599621543893890432,0
599621543901577088,-9
599621543909263872,-16
599621543916950528,-16
599621543924637184,-13
599621543932323968,-11
599621543940010624,-6
599621543947697280,-4
599621543955384064,-2
599621543963070720,-2
599621543970757504,0
599621543978444160,4
599621543986130816,6
599621543993817600,9
599621544001504256,11
599621544009190912,11
599621544016877696,11
599621544024564352,13
599621544032251136,16
599621544039937792,20
599621544047624448,20
599621544055311232,23
599621544062997888,23
599621544070684544,20
599621544078371328,20
599621544086057984,25
599621544093744768,25
599621544101431424,25
599621544109118080,27
599621544116804864,30
599621544124491520,27
599621544132178176,27
599621544139864960,30
599621544147551616,32
599621544155238400,30
599621544162925056,32
599621544170611712,32
599621544178298496,32
599621544185985152,32
599621544193671808,34
599621544201358592,34
599621544209045248,34
599621544216732032,34
599621544224418688,34
599621544232105344,34
599621544239792128,36
599621544247478784,36
599621544255165440,34
599621544262852224,34
599621544270538880,32
599621544278225664,27
599621544285912352,32
599621544293598976,53
599621544301285632,69
599621544308972416,69
599621544316659072,69
599621544324345728,69
599621544332032512,55
599621544339719168,39
599621544347405952,34
599621544355092608,34
599621544362779264,34
599621544370466048,34
599621544378152704,34
599621544385839360,34
599621544393526144,36
599621544401212800,36
599621544408899584,36
599621544416586240,34
599621544424272896,-2
599621544431959680,-101
599621544439646336,-157
599621544447332992,27
599621544455019776,446
599621544462706432,765
599621544470393216,617
599621544478079872,136
599621544485766528,-122
599621544493453312,-71
599621544501139968,-32
599621544508826624,-20
599621544516513408,36
599621544524200064,41
599621544531886848,13
599621544539573504,27
599621544547260160,41
599621544554946944,34
599621544562633600,34
599621544570320256,41
599621544578007040,41
599621544585693696,46
599621544593380480,50
599621544601067136,55
599621544608753792,57
599621544616440576,62
599621544624127232,67
599621544631813888,71
599621544639500672,76
599621544647187328,83
599621544654874112,90
599621544662560768,94
599621544670247424,104
599621544677934208,110
599621544685620864,120
599621544693307520,129
599621544700994304,138
599621544708680960,143
599621544716367744,147
599621544724054400,143
599621544731741056,129
599621544739427840,101
599621544747114496,71
599621544754801152,41
599621544762487936,18
599621544770174592,0
599621544777861376,-11
599621544785548032,-18
599621544793234688,-18
599621544800921472,-20
599621544808608128,-18
599621544816294784,-13
599621544823981568,-11
599621544831668224,-9
599621544839355008,-6
599621544847041731,-4
599621544854728448,0
599621544862415104,2
599621544870101888,4
599621544877788544,6
599621544885475200,6
599621544893161984,6
599621544900848640,9
599621544908535424,11
599621544916222080,13
599621544923908736,16
599621544931595520,16
599621544939282176,18
599621544946968832,20
599621544954655616,20
599621544962342272,23
599621544970029056,23
599621544977715712,25
599621544985402368,25
599621544993089152,27
599621545000775808,30
599621545008462464,27
599621545016149248,30
599621545023835904,32
599621545031522688,32
599621545039209344,32
599621545046896000,32
599621545054582784,34
599621545062269440,32
599621545069956096,32
599621545077642880,30
599621545085329536,32
599621545093016320,32
599621545100702976,34
599621545108389632,32
599621545116076416,32
599621545123763072,34
599621545131449728,36
599621545139136512,34
599621545146823168,34
599621545154509952,36
599621545162196608,39
599621545169883264,34
599621545177570048,36
599621545185256704,39
599621545192943360,39
599621545200630144,36
599621545208316800,36
599621545216003584,39
599621545223690240,39
599621545231376896,36
599621545239063680,36
599621545246750336,39
599621545254436992,32
599621545262123776,27
599621545269810432,43
599621545277497216,69
599621545285183872,76
599621545292870528,71
599621545300557312,71
599621545308243968,69
599621545315930624,50
599621545323617408,36
599621545331304064,39
599621545338990848,43
599621545346677504,39
599621545354364160,39
599621545362050944,41
599621545369737600,39
599621545377424256,39
599621545385111040,41
599621545392797696,41
599621545400484480,13
599621545408171110,-76
599621545415857792,-173
599621545423544448,-67
599621545431231232,332
599621545438917888,771
599621545446604544,808
599621545454291328,353
599621545461977984,-60
599621545469664768,-90
599621545477351424,-34
599621545485038080,-39
599621545492724864,9
599621545500411520,32
599621545508098176,0
599621545515784960,2
599621545523471616,25
599621545531158400,20
599621545538845056,18
599621545546531712,30
599621545554218496,32
599621545561905152,32
599621545569591808,39
599621545577278592,41
599621545584965248,41
599621545592652032,48
599621545600338688,55
599621545608025344,57
599621545615712128,60
599621545623398784,69
599621545631085440,73
599621545638772224,80
599621545646458880,87
599621545654145664,97
599621545661832320,106
599621545669518976,115
599621545677205760,124
599621545684892416,131
599621545692579072,136
599621545700265856,138
599621545707952512,129
599621545715639296,110
599621545723325952,83
599621545731012608,50
599621545738699392,23
599621545746386048,0
599621545754072704,-16
599621545761759488,-25
599621545769446144,-32
599621545777132928,-34
599621545784819584,-30
599621545792506240,-27
599621545800193024,-25
599621545807879680,-23
599621545815566336,-20
599621545823253120,-16
599621545830939776,-11
599621545838626560,-6
599621545846313216,-6
599621545853999872,-6
599621545861686656,-2
599621545869373312,0
599621545877059968,0
599621545884746752,2
599621545892433408,4
599621545900120192,4
599621545907806848,9
599621545915493504,9
599621545923180288,9
599621545930866944,11
599621545938553600,13
599621545946240384,13
599621545953927040,13
599621545961613824,16
599621545969300493,16
599621545976987136,16
599621545984673792,16
599621545992360576,18
599621546000047232,18
599621546007733888,18
599621546015420672,20
599621546023107328,20
599621546030794112,18
599621546038480768,16
599621546046167424,16
599621546053854208,18
599621546061540864,18
599621546069227520,18
599621546076914304,20
599621546084600960,20
599621546092287744,16
599621546099974400,13
599621546107661056,18
599621546115347840,18
599621546123034496,18
599621546130721152,18
599621546138407936,20
599621546146094592,20
599621546153781376,20
599621546161468032,23
599621546169154688,25
599621546176841472,23
599621546184528128,20
599621546192214784,23
599621546199901568,23
599621546207588224,18
599621546215275008,13
599621546222961664,16
599621546230648320,36
599621546238335104,57
599621546246021760,57
599621546253708416,53
599621546261395200,50
599621546269081856,39
599621546276768640,23
599621546284455296,20
599621546292141952,25
599621546299828736,23
599621546307515392,20
599621546315202048,23
599621546322888832,20
599621546330575488,20
599621546338262272,23
599621546345948928,25
599621546353635584,20
599621546361322368,-23
599621546369009024,-129
599621546376695680,-168
599621546384382464,60
599621546392069120,487
599621546399755904,732
599621546407442560,487
599621546415129216,2
599621546422816000,-180
599621546430502656,-106
599621546438189312,-76
599621546445876096,-27
599621546453562752,53
599621546461249536,41
599621546468936192,13
599621546476622848,36
599621546484309632,48
599621546491996288,39
599621546499682944,46
599621546507369728,55
599621546515056384,53
599621546522743168,53
599621546530429872,60
599621546538116480,67
599621546545803136,69
599621546553489920,71
599621546561176576,78
599621546568863232,83
599621546576550016,87
599621546584236672,92
599621546591923456,97
599621546599610112,106
599621546607296768,115
599621546614983552,122
599621546622670208,134
599621546630356864,143
599621546638043648,147
599621546645730304,150
599621546653417088,152
599621546661103744,147
599621546668790400,127
599621546676477184,97
599621546684163840,60
599621546691850496,25
599621546699537280,2
599621546707223936,-13
599621546714910720,-27
599621546722597376,-39
599621546730284032,-39
599621546737970816,-34
599621546745657472,-32
599621546753344128,-30
599621546761030912,-25
599621546768717568,-23
599621546776404352,-23
599621546784091008,-20
599621546791777664,-16
599621546799464448,-11
599621546807151104,-11
599621546814837760,-11
599621546822524544,-9
599621546830211200,-4
599621546837897984,-2
599621546845584640,0
599621546853271296,4
599621546860958080,4
599621546868644736,6
599621546876331392,6
599621546884018176,9
599621546891704832,11
599621546899391616,11
599621546907078272,11
599621546914764928,16
599621546922451712,16
599621546930138368,13
599621546937825024,16
599621546945511808,18
599621546953198464,16
599621546960885248,18
599621546968571904,18
599621546976258560,18
599621546983945344,18
599621546991632000,20
599621546999318656,20
599621547007005440,20
599621547014692096,20
599621547022378880,20
599621547030065536,20
599621547037752192,20
599621547045438976,25
599621547053125632,25
599621547060812288,25
599621547068499072,27
599621547076185728,25
599621547083872512,20
599621547091559251,18
599621547099245824,18
599621547106932352,36
599621547114619008,57
599621547122305536,57
599621547129992064,55
599621547137678592,53
599621547145365248,39
599621547153051776,23
599621547160738304,20
599621547168424960,20
599621547176111488,20
599621547183798016,23
599621547191484544,23
599621547199171200,20
599621547206857728,23
599621547214544256,25
599621547222230912,25
599621547229917440,20
599621547237603968,-4
599621547245290496,-90
599621547252977152,-161
599621547260663680,-25
599621547268350208,346
599621547276036864,637
599621547283723392,492
599621547291409920,53
599621547299096448,-157
599621547306783104,-101
599621547314469632,-73
599621547322156160,-36
599621547329842816,55
599621547337529344,62
599621547345215872,23
599621547352902400,39
599621547360589056,57
599621547368275584,46
599621547375962112,46
599621547383648768,57
599621547391335296,60
599621547399021824,62
599621547406708352,69
599621547414395008,69
599621547422081536,71
599621547429768064,76
599621547437454720,83
599621547445141248,87
599621547452827776,92
599621547460514304,99
599621547468200960,104
599621547475887488,110
599621547483574016,117
599621547491260672,127
599621547498947200,136
599621547506633728,145
599621547514320256,152
599621547522006912,157
599621547529693440,157
599621547537379968,152
599621547545066624,134
599621547552753152,101
599621547560439680,64
599621547568126208,32
599621547575812864,9
599621547583499392,-9
599621547591185920,-23
599621547598872576,-32
599621547606559104,-32
599621547614245632,-30
599621547621932160,-27
599621547629618816,-25
599621547637305344,-20
599621547644991872,-16
599621547652678460,-13
599621547660364800,-13
599621547668051200,-11
599621547675737600,-9
599621547683424128,-6
599621547691110528,-4
599621547698796928,-2
599621547706483328,0
599621547714169728,2
599621547721856256,2
599621547729542656,4
599621547737229056,9
599621547744915456,11
599621547752601856,11
599621547760288384,13
599621547767974784,16
599621547775661184,18
599621547783347584,18
599621547791033984,18
599621547798720512,20
599621547806406912,20
599621547814093312,23
599621547821779712,25
599621547829466112,25
599621547837152640,25
599621547844839040,25
599621547852525440,25
599621547860211840,27
599621547867898240,25
599621547875584640,25
599621547883271168,27
599621547890957568,30
599621547898643968,27
599621547906330368,27
599621547914016768,27
599621547921703296,23
599621547929389696,32
599621547937076096,55
599621547944762496,64
599621547952448896,60
599621547960135424,60
599621547967821824,55
599621547975508224,41
599621547983194624,32
599621547990881024,30
599621547998567552,32
599621548006253952,34
599621548013940352,32
599621548021626752,32
599621548029313152,34
599621548036999680,34
599621548044686080,34
599621548052372480,34
599621548060058880,27
599621548067745280,-34
599621548075431808,-134
599621548083118208,-108
599621548090804608,180
599621548098491008,570
599621548106177408,658
599621548113863936,302
599621548121550336,-73
599621548129236736,-120
599621548136923136,-60
599621548144609536,-46
599621548152296064,18
599621548159982464,62
599621548167668864,30
599621548175355264,20
599621548183041664,46
599621548190728192,46
599621548198414592,41
599621548206100992,48
599621548213787491,50
599621548221474176,50
599621548229160832,55
599621548236847616,60
599621548244534272,62
599621548252220928,67
599621548259907712,69
599621548267594368,76
599621548275281152,80
599621548282967808,85
599621548290654464,90
599621548298341248,94
599621548306027904,106
599621548313714560,115
599621548321401344,122
599621548329088000,129
599621548336774784,140
599621548344461440,147
599621548352148096,150
599621548359834880,147
599621548367521536,136
599621548375208192,113
599621548382894976,78
599621548390581632,46
599621548398268416,18
599621548405955072,-2
599621548413641728,-16
599621548421328512,-23
599621548429015168,-25
599621548436701824,-25
599621548444388608,-25
599621548452075264,-20
599621548459762048,-16
599621548467448704,-16
599621548475135360,-11
599621548482822144,-9
599621548490508800,-6
599621548498195456,-4
599621548505882240,-2
599621548513568896,-2
599621548521255680,0
599621548528942336,2
599621548536628992,4
599621548544315776,6
599621548552002432,9
599621548559689088,9
599621548567375872,9
599621548575062528,13
599621548582749312,13
599621548590435968,13
599621548598122624,16
599621548605809408,16
599621548613496064,16
599621548621182720,18
599621548628869504,20
599621548636556160,20
599621548644242944,20
599621548651929600,20
599621548659616256,20
599621548667303040,23
599621548674989696,23
599621548682676352,20
599621548690363136,23
599621548698049792,25
599621548705736576,25
599621548713423232,25
599621548721109888,27
599621548728796672,27
599621548736483328,25
599621548744169984,20
599621548751856768,20
599621548759543424,18
599621548767230208,20
599621548774916870,39
599621548782603520,60
599621548790290176,60
599621548797976960,57
599621548805663616,60
599621548813350272,50
599621548821037056,32
599621548828723712,23
599621548836410496,25
599621548844097152,27
599621548851783808,23
599621548859470592,23
599621548867157248,27
599621548874843904,27
599621548882530688,27
599621548890217344,30
599621548897904128,27
599621548905590784,2
599621548913277440,-85
599621548920964224,-171
599621548928650880,-50
599621548936337536,339
599621548944024320,734
599621548951710976,718
599621548959397760,254
599621548967084416,-108
599621548974771072,-99
599621548982457856,-41
599621548990144512,-39
599621548997831168,16
599621549005517952,36
599621549013204608,2
599621549020891392,9
599621549028578048,30
599621549036264704,25
599621549043951488,23
599621549051638144,34
599621549059324800,36
599621549067011584,36
599621549074698240,41
599621549082385024,43
599621549090071680,48
599621549097758336,53
599621549105445120,55
599621549113131776,57
599621549120818432,62
599621549128505216,67
599621549136191872,73
599621549143878656,80
599621549151565312,90
599621549159251968,97
599621549166938752,106
599621549174625408,115
599621549182312064,124
599621549189998848,131
599621549197685504,136
599621549205372288,136
599621549213058944,124
599621549220745600,99
599621549228432384,64
599621549236119040,34
599621549243805696,11
599621549251492480,-6
599621549259179136,-20
599621549266865920,-27
599621549274552576,-30
599621549282239232,-27
599621549289926016,-25
599621549297612672,-20
599621549305299328,-18
599621549312986112,-16
599621549320672768,-13
599621549328359552,-11
599621549336046253,-6
599621549343732864,-4
599621549351419520,-2
599621549359106304,-2
599621549366792960,0
599621549374479616,2
599621549382166400,4
599621549389853056,6
599621549397539840,6
599621549405226496,6
599621549412913152,11
599621549420599936,11
599621549428286592,11
599621549435973248,11
599621549443660032,13
599621549451346688,13
599621549459033472,13
599621549466720128,16
599621549474406784,18
599621549482093568,18
599621549489780224,18
599621549497466880,20
599621549505153664,23
599621549512840320,23
599621549520527104,23
599621549528213760,23
599621549535900416,23
599621549543587200,23
599621549551273856,25
599621549558960512,25
599621549566647296,25
599621549574333952,30
599621549582020736,27
599621549589707392,25
599621549597394048,30
599621549605080832,27
599621549612767488,25
599621549620454144,27
599621549628140928,30
599621549635827584,27
599621549643514368,27
599621549651201024,30
599621549658887680,30
599621549666574464,30
599621549674261120,30
599621549681947776,30
599621549689634560,30
599621549697321216,30
599621549705008000,32
599621549712694656,30
599621549720381312,32
599621549728068096,30
599621549735754752,30
599621549743441408,30
599621549751128192,23
599621549758814848,20
599621549766501632,39
599621549774188288,64
599621549781874944,67
599621549789561728,62
599621549797248384,64
599621549804935040,60
599621549812621824,41
599621549820308480,27
599621549827995264,27
599621549835681920,32
599621549843368576,32
599621549851055360,30
599621549858742016,30
599621549866428672,32
599621549874115456,32
599621549881802112,32
599621549889488896,27
599621549897175632,-9
599621549904862336,-115
599621549912548992,-182
599621549920235776,0
599621549927922432,446
599621549935609088,820
599621549943295872,714
599621549950982528,205
599621549958669312,-108
599621549966355968,-78
599621549974042624,-41
599621549981729408,-34
599621549989416064,16
599621549997102720,13
599621550004789504,-16
599621550012476160,4
599621550020162944,18
599621550027849600,11
599621550035536256,16
599621550043223040,25
599621550050909696,23
599621550058596352,27
599621550066283136,34
599621550073969792,36
599621550081656576,39
599621550089343232,43
599621550097029888,48
599621550104716672,55
599621550112403328,57
599621550120089984,62
599621550127776768,71
599621550135463424,78
599621550143150208,83
599621550150836864,92
599621550158523520,101
599621550166210304,110
599621550173896960,120
599621550181583616,129
599621550189270400,129
599621550196957056,129
599621550204643840,122
599621550212330496,101
599621550220017152,71
599621550227703936,39
599621550235390592,11
599621550243077248,-9
599621550250764032,-23
599621550258450688,-32
599621550266137472,-34
599621550273824128,-32
599621550281510784,-30
599621550289197568,-30
599621550296884224,-30
599621550304570880,-27
599621550312257664,-23
599621550319944320,-18
599621550327631104,-16
599621550335317760,-16
599621550343004416,-13
599621550350691200,-9
599621550358377856,-9
599621550366064512,-6
599621550373751296,-4
599621550381437952,0
599621550389124736,0
599621550396811392,-2
599621550404498048,-2
599621550412184832,2
599621550419871488,6
599621550427558144,6
599621550435244928,4
599621550442931584,4
599621550450618368,6
599621550458305011,9
599621550465991680,6
599621550473678336,9
599621550481365120,11
599621550489051776,11
599621550496738432,11
599621550504425216,11
599621550512111872,11
599621550519798656,16
599621550527485312,16
599621550535171968,13
599621550542858752,13
599621550550545408,13
599621550558232064,13
599621550565918848,13
599621550573605504,16
599621550581292288,16
599621550588978944,16
599621550596665600,13
599621550604352384,18
599621550612039040,20
599621550619725696,16
599621550627412480,13
599621550635099136,18
599621550642785920,18
599621550650472576,11
599621550658159232,9
599621550665846016,18
599621550673532672,46
599621550681219328,57
599621550688906112,53
599621550696592768,48
599621550704279552,48
599621550711966208,32
599621550719652864,16
599621550727339648,16
599621550735026304,20
599621550742712960,18
599621550750399744,18
599621550758086400,23
599621550765773184,23
599621550773459840,20
599621550781146496,20
599621550788833280,23
599621550796519936,6
599621550804206592,-60
599621550811893376,-166
599621550819580032,-124
599621550827266816,205
599621550834953472,624
599621550842640128,707
599621550850326912,305
599621550858013568,-120
599621550865700224,-168
599621550873387008,-90
599621550881073664,-71
599621550888760448,4
599621550896447104,60
599621550904133760,23
599621550911820544,16
599621550919507200,41
599621550927193856,36
599621550934880640,32
599621550942567296,48
599621550950254080,50
599621550957940736,48
599621550965627392,53
599621550973314176,60
599621550981000832,62
599621550988687488,64
599621550996374272,69
599621551004060928,76
599621551011747712,80
599621551019434390,87
599621551027121024,94
599621551034807680,101
599621551042494336,108
599621551050180864,117
599621551057867520,129
599621551065554176,138
599621551073240832,147
599621551080927488,150
599621551088614144,152
599621551096300672,152
599621551103987328,140
599621551111673984,110
599621551119360640,69
599621551127047296,32
599621551134733952,4
599621551142420480,-20
599621551150107136,-36
599621551157793792,-43
599621551165480448,-48
599621551173167104,-48
599621551180853760,-46
599621551188540288,-43
599621551196226944,-39
599621551203913600,-34
599621551211600256,-30
599621551219286912,-30
599621551226973568,-30
599621551234660096,-25
599621551242346752,-20
599621551250033408,-20
599621551257720064,-18
599621551265406720,-11
599621551273093376,-11
599621551280779904,-9
599621551288466560,-4
599621551296153216,-4
599621551303839872,-2
599621551311526528,2
599621551319213184,4
599621551326899712,2
599621551334586368,2
599621551342273024,6
599621551349959680,6
599621551357646336,9
599621551365332992,9
599621551373019520,9
599621551380706176,11
599621551388392832,11
599621551396079488,11
599621551403766144,13
599621551411452672,13
599621551419139328,13
599621551426825984,16
599621551434512640,13
599621551442199296,13
599621551449885952,18
599621551457572480,20
599621551465259136,18
599621551472945792,18
599621551480632448,18
599621551488319104,18
599621551496005760,18
599621551503692288,13
599621551511378944,13
599621551519065600,25
599621551526752256,43
599621551534438912,55
599621551542125568,55
599621551549812096,55
599621551557498752,46
599621551565185408,30
599621551572872064,23
599621551580558686,20
599621551588245120,20
599621551595931520,20
599621551603617792,20
599621551611304192,20
599621551618990592,20
599621551626676864,18
599621551634363264,18
599621551642049664,20
599621551649735936,11
599621551657422336,-50
599621551665108736,-150
599621551672795008,-117
599621551680481408,175
599621551688167680,552
599621551695854080,603
599621551703540480,221
599621551711226752,-127
599621551718913152,-136
599621551726599552,-76
599621551734285824,-64
599621551741972224,20
599621551749658624,71
599621551757344896,32
599621551765031296,25
599621551772717696,55
599621551780403968,50
599621551788090368,43
599621551795776768,55
599621551803463040,55
599621551811149440,55
599621551818835840,62
599621551826522112,67
599621551834208512,69
599621551841894912,76
599621551849581184,78
599621551857267584,80
599621551864953856,85
599621551872640256,94
599621551880326656,99
599621551888012928,104
599621551895699328,113
599621551903385728,122
599621551911072000,131
599621551918758400,138
599621551926444800,145
599621551934131072,150
599621551941817472,152
599621551949503872,150
599621551957190144,136
599621551964876544,108
599621551972562944,71
599621551980249216,39
599621551987935616,11
599621551995622016,-9
599621552003308288,-23
599621552010994688,-30
599621552018680960,-30
599621552026367360,-30
599621552034053760,-30
599621552041740032,-25
599621552049426432,-23
599621552057112832,-20
599621552064799104,-16
599621552072485504,-13
599621552080171904,-11
599621552087858176,-11
599621552095544576,-9
599621552103230976,-6
599621552110917248,-4
599621552118603648,-2
599621552126290048,0
599621552133976320,0
599621552141662630,0
599621552149349248,4
599621552157035904,9
599621552164722688,9
599621552172409344,11
599621552180096000,11
599621552187782784,9
599621552195469440,11
599621552203156224,16
599621552210842880,16
599621552218529536,18
599621552226216320,16
599621552233902976,16
599621552241589632,20
599621552249276416,20
599621552256963072,18
599621552264649856,18
599621552272336512,18
599621552280023168,20
599621552287709952,23
599621552295396608,23
599621552303083264,20
599621552310770048,20
599621552318456704,18
599621552326143488,16
599621552333830144,23
599621552341516800,46
599621552349203584,60
599621552356890240,55
599621552364576896,57
599621552372263680,53
599621552379950336,36
599621552387637120,23
599621552395323776,23
599621552403010432,25
599621552410697216,25
599621552418383872,23
599621552426070528,25
599621552433757312,27
599621552441443968,25
599621552449130752,25
599621552456817408,30
599621552464504064,23
599621552472190848,-30
599621552479877504,-131
599621552487564160,-131
599621552495250944,129
599621552502937600,533
599621552510624384,693
599621552518311040,381
599621552525997696,-36
599621552533684480,-131
599621552541371136,-64
599621552549057792,-48
599621552556744576,2
599621552564431232,57
599621552572118016,30
599621552579804672,13
599621552587491328,39
599621552595178112,41
599621552602864768,32
599621552610551424,39
599621552618238208,46
599621552625924864,46
599621552633611648,48
599621552641298304,50
599621552648984960,55
599621552656671744,60
599621552664358400,64
599621552672045056,71
599621552679731840,76
599621552687418496,78
599621552695105280,85
599621552702792013,92
599621552710478720,97
599621552718165376,106
599621552725852160,117
599621552733538816,127
599621552741225472,134
599621552748912256,140
599621552756598912,145
599621552764285696,143
599621552771972352,131
599621552779659008,110
599621552787345792,76
599621552795032448,43
599621552802719104,18
599621552810405888,-2
599621552818092544,-18
599621552825779328,-25
599621552833465984,-27
599621552841152640,-27
599621552848839424,-27
599621552856526080,-25
599621552864212736,-23
599621552871899520,-18
599621552879586176,-16
599621552887272960,-13
599621552894959616,-9
599621552902646272,-9
599621552910333056,-6
599621552918019712,-4
599621552925706368,-2
599621552933393152,-2
599621552941079808,-2
599621552948766592,2
599621552956453248,4
599621552964139904,4
599621552971826688,6
599621552979513344,9
599621552987200000,11
599621552994886784,11
599621553002573440,13
599621553010260224,13
599621553017946880,16
599621553025633536,18
599621553033320320,18
599621553041006976,18
599621553048693632,20
599621553056380416,18
599621553064067072,18
599621553071753856,20
599621553079440512,20
599621553087127168,20
599621553094813952,23
599621553102500608,20
599621553110187264,18
599621553117874048,18
599621553125560704,20
599621553133247488,20
599621553140934144,20
599621553148620800,18
599621553156307584,20
599621553163994240,20
599621553171680896,20
599621553179367680,23
599621553187054336,23
599621553194741120,23
599621553202427776,23
599621553210114432,23
599621553217801216,23
599621553225487872,20
599621553233174528,13
599621553240861312,16
599621553248547968,39
599621553256234752,60
599621553263921392,55
599621553271607936,55
599621553279294464,57
599621553286980864,43
599621553294667392,27
599621553302353920,23
599621553310040448,25
599621553317726848,25
599621553325413376,23
599621553333099904,23
599621553340786432,25
599621553348472832,25
599621553356159360,23
599621553363845888,23
599621553371532416,20
599621553379218816,-13
599621553386905344,-120
599621553394591872,-173
599621553402278400,25
599621553409964800,459
599621553417651328,781
599621553425337856,621
599621553433024384,134
599621553440710784,-122
599621553448397312,-71
599621553456083840,-39
599621553463770368,-27
599621553471456768,25
599621553479143296,23
599621553486829824,-2
599621553494516224,13
599621553502202752,25
599621553509889280,20
599621553517575808,23
599621553525262208,30
599621553532948736,32
599621553540635264,34
599621553548321792,39
599621553556008192,41
599621553563694720,46
599621553571381248,50
599621553579067776,55
599621553586754176,57
599621553594440704,62
599621553602127232,67
599621553609813760,73
599621553617500160,83
599621553625186688,90
599621553632873216,97
599621553640559744,104
599621553648246144,110
599621553655932672,117
599621553663619200,124
599621553671305728,127
599621553678992128,127
599621553686678656,115
599621553694365184,87
599621553702051584,57
599621553709738112,30
599621553717424640,6
599621553725111168,-9
599621553732797568,-20
599621553740484096,-30
599621553748170624,-30
599621553755857152,-27
599621553763543552,-25
599621553771230080,-25
599621553778916608,-23
599621553786603136,-20
599621553794289536,-16
599621553801976064,-11
599621553809662592,-9
599621553817349120,-6
599621553825035514,-6
599621553832722048,-4
599621553840408576,-2
599621553848094976,-2
599621553855781504,0
599621553863468032,2
599621553871154560,4
599621553878840960,6
599621553886527488,6
599621553894214016,6
599621553901900544,9
599621553909586944,9
599621553917273472,11
599621553924960000,11
599621553932646528,13
599621553940332928,13
599621553948019456,13
599621553955705984,16
599621553963392512,16
599621553971078912,16
599621553978765440,18
599621553986451968,18
599621553994138496,18
599621554001824896,20
599621554009511424,20
599621554017197952,18
599621554024884480,20
599621554032570880,23
599621554040257408,20
599621554047943936,20
599621554055630336,20
599621554063316864,20
599621554071003392,20
599621554078689920,23
599621554086376320,23
599621554094062848,25
599621554101749376,25
599621554109435904,23
599621554117122304,23
599621554124808832,27
599621554132495360,27
599621554140181888,25
599621554147868288,27
599621554155554816,25
599621554163241344,23
599621554170927872,25
599621554178614272,27
599621554186300800,25
599621554193987328,25
599621554201673856,25
599621554209360256,25
599621554217046784,27
599621554224733312,30
599621554232419712,27
599621554240106240,27
599621554247792768,27
599621554255479296,32
599621554263165696,30
599621554270852224,27
599621554278538752,27
599621554286225280,27
599621554293911680,25
599621554301598208,20
599621554309284736,16
599621554316971264,25
599621554324657664,48
599621554332344192,62
599621554340030720,57
599621554347717248,60
599621554355403648,57
599621554363090176,43
599621554370776704,27
599621554378463232,23
599621554386149632,23
599621554393836288,23
599621554401522944,25
599621554409209728,25
599621554416896384,25
599621554424583040,25
599621554432269824,23
599621554439956480,18
599621554447643264,-4
599621554455329920,-92
599621554463016576,-191
599621554470703360,-87
599621554478390016,309
599621554486076672,746
599621554493763456,778
599621554501450112,316
599621554509136896,-101
599621554516823552,-124
599621554524510208,-57
599621554532196992,-60
599621554539883648,-4
599621554547570304,25
599621554555257088,-6
599621554562943744,-4
599621554570630528,16
599621554578317184,11
599621554586003840,9
599621554593690624,20
599621554601377280,25
599621554609063936,25
599621554616750720,30
599621554624437376,34
599621554632124160,36
599621554639810816,43
599621554647497472,46
599621554655184256,48
599621554662870912,55
599621554670557568,60
599621554678244352,64
599621554685931008,71
599621554693617792,80
599621554701304448,87
599621554708991104,94
599621554716677888,104
599621554724364544,113
599621554732051200,120
599621554739737984,124
599621554747424640,124
599621554755111424,117
599621554762798080,101
599621554770484736,73
599621554778171520,43
599621554785858176,16
599621554793544832,-4
599621554801231616,-20
599621554808918272,-34
599621554816605056,-39
599621554824291712,-41
599621554831978368,-39
599621554839665152,-36
599621554847351808,-36
599621554855038464,-32
599621554862725248,-27
599621554870411904,-25
599621554878098688,-23
599621554885785344,-23
599621554893472000,-18
599621554901158784,-16
599621554908845440,-13
599621554916532096,-11
599621554924218880,-9
599621554931905536,-4
599621554939592320,-4
599621554947279011,-4
599621554954965248,-2
599621554962651520,0
599621554970337792,2
599621554978024064,2
599621554985710336,2
599621554993396736,4
599621555001083008,6
599621555008769280,2
599621555016455552,4
599621555024141824,6
599621555031828096,6
599621555039514368,6
599621555047200640,6
599621555054886912,9
599621555062573312,11
599621555070259584,9
599621555077945856,9
599621555085632128,11
599621555093318400,9
599621555101004672,11
599621555108690944,13
599621555116377216,11
599621555124063488,11
599621555131749760,11
599621555139436160,11
599621555147122432,13
599621555154808704,13
599621555162494976,11
599621555170181248,9
599621555177867520,11
599621555185553792,13
599621555193240064,13
599621555200926336,11
599621555208612736,9
599621555216299008,9
599621555223985280,13
599621555231671552,13
599621555239357824,13
599621555247044096,13
599621555254730368,16
599621555262416640,16
599621555270102912,16
599621555277789312,16
599621555285475584,13
599621555293161856,6
599621555300848128,11
599621555308534400,34
599621555316220672,53
599621555323906944,53
599621555331593216,50
599621555339279488,48
599621555346965760,32
599621555354652160,20
599621555362338432,16
599621555370024704,18
599621555377710976,20
599621555385397248,18
599621555393083520,20
599621555400769792,18
599621555408456064,13
599621555416142336,18
599621555423828736,20
599621555431515008,6
599621555439201280,-50
599621555446887552,-154
599621555454573824,-145
599621555462260096,138
599621555469946368,550
599621555477632640,677
599621555485318912,325
599621555493005312,-101
599621555500691584,-173
599621555508377872,-94
599621555516064512,-78
599621555523751168,-6
599621555531437952,60
599621555539124608,30
599621555546811264,11
599621555554498048,36
599621555562184704,41
599621555569871488,32
599621555577558144,41
599621555585244800,48
599621555592931584,46
599621555600618240,48
599621555608304896,55
599621555615991680,60
599621555623678336,64
599621555631365120,69
599621555639051776,73
599621555646738432,78
599621555654425216,85
599621555662111872,92
599621555669798528,97
599621555677485312,101
599621555685171968,110
599621555692858752,124
599621555700545408,136
599621555708232064,140
599621555715918848,145
599621555723605504,150
599621555731292160,150
599621555738978944,143
599621555746665600,122
599621555754352384,85
599621555762039040,46
599621555769725696,16
599621555777412480,-4
599621555785099136,-25
599621555792785792,-39
599621555800472576,-41
599621555808159232,-43
599621555815846016,-43
599621555823532672,-39
599621555831219328,-34
599621555838906112,-32
599621555846592768,-32
599621555854279424,-27
599621555861966208,-23
599621555869652864,-25
599621555877339648,-20
599621555885026304,-16
599621555892712960,-13
599621555900399744,-16
599621555908086400,-13
599621555915773056,-6
599621555923459840,-2
599621555931146496,-2
599621555938833280,-2
599621555946519936,-2
599621555954206592,-2
599621555961893376,0
599621555969580032,2
599621555977266688,6
599621555984953472,6
599621555992640128,6
599621556000326912,4
599621556008013568,4
599621556015700224,9
599621556023387008,11
599621556031073664,11
599621556038760320,13
599621556046447104,11
599621556054133760,9
599621556061820544,11
599621556069507255,11
599621556077193856,11
599621556084880512,13
599621556092567296,13
599621556100253952,16
599621556107940608,18
599621556115627392,18
599621556123314048,16
599621556131000832,16
599621556138687488,13
599621556146374144,11
599621556154060928,18
599621556161747584,39
599621556169434240,50
599621556177121024,48
599621556184807680,46
599621556192494464,41
599621556200181120,27
599621556207867776,18
599621556215554560,16
599621556223241216,13
599621556230927872,16
599621556238614656,18
599621556246301312,18
599621556253988096,18
599621556261674752,18
599621556269361408,20
599621556277048192,23
599621556284734848,13
599621556292421504,-41
599621556300108288,-136
599621556307794944,-131
599621556315481728,124
599621556323168384,496
599621556330855040,598
599621556338541824,272
599621556346228480,-94
599621556353915136,-140
599621556361601920,-78
599621556369288576,-67
599621556376975360,6
599621556384662016,69
599621556392348672,36
599621556400035456,23
599621556407722112,50
599621556415408768,50
599621556423095552,43
599621556430782208,55
599621556438468992,60
599621556446155648,57
599621556453842304,62
599621556461529088,67
599621556469215744,69
599621556476902400,71
599621556484589184,76
599621556492275840,80
599621556499962624,87
599621556507649280,92
599621556515335936,99
599621556523022720,108
599621556530709376,115
599621556538396032,124
599621556546082816,134
599621556553769472,145
599621556561456256,157
599621556569142912,164
599621556576829568,166
599621556584516352,161
599621556592203008,150
599621556599889664,127
599621556607576448,90
599621556615263104,53
599621556622949888,25
599621556630636634,2
599621556638323328,-16
599621556646009984,-25
599621556653696768,-25
599621556661383424,-25
599621556669070080,-25
599621556676756864,-25
599621556684443520,-25
599621556692130304,-20
599621556699816960,-13
599621556707503616,-13
599621556715190400,-13
599621556722877056,-13
599621556730563712,-9
599621556738250496,-6
599621556745937152,-6
599621556753623936,-4
599621556761310592,-2
599621556768997248,2
599621556776684032,2
599621556784370688,2
599621556792057344,6
599621556799744128,9
599621556807430784,9
599621556815117568,11
599621556822804224,16
599621556830490880,18
599621556838177664,18
599621556845864320,16
599621556853550976,16
599621556861237760,18
599621556868924416,18
599621556876611200,16
599621556884297856,20
599621556891984512,23
599621556899671296,20
599621556907357952,18
599621556915044608,20
599621556922731392,20
599621556930418048,18
599621556938104832,11
599621556945791488,13
599621556953478144,36
599621556961164928,55
599621556968851584,53
599621556976538240,50
599621556984225024,53
599621556991911680,39
599621556999598464,23
599621557007285120,18
599621557014971776,20
599621557022658560,20
599621557030345216,20
599621557038031872,20
599621557045718656,20
599621557053405312,20
599621557061092096,20
599621557068778752,20
599621557076465408,16
599621557084152192,-30
599621557091838848,-134
599621557099525504,-157
599621557107212288,78
599621557114898944,496
599621557122585728,718
599621557130272384,459
599621557137959040,2
599621557145645824,-152
599621557153332480,-83
599621557161019136,-57
599621557168705920,-18
599621557176392576,41
599621557184079360,23
599621557191766013,0
599621557199452544,23
599621557207139072,30
599621557214825728,20
599621557222512256,27
599621557230198784,36
599621557237885312,36
599621557245571968,36
599621557253258496,39
599621557260945024,41
599621557268631680,46
599621557276318208,50
599621557284004736,53
599621557291691264,57
599621557299377920,64
599621557307064448,73
599621557314750976,78
599621557322437632,85
599621557330124160,94
599621557337810688,106
599621557345497216,117
599621557353183872,124
599621557360870400,134
599621557368556928,138
599621557376243584,136
599621557383930112,127
599621557391616640,106
599621557399303168,73
599621557406989824,36
599621557414676352,6
599621557422362880,-13
599621557430049536,-27
599621557437736064,-36
599621557445422592,-39
599621557453109120,-39
599621557460795776,-34
599621557468482304,-32
599621557476168832,-30
599621557483855488,-25
599621557491542016,-23
599621557499228544,-20
599621557506915072,-18
599621557514601728,-13
599621557522288256,-16
599621557529974784,-13
599621557537661440,-11
599621557545347968,-6
599621557553034496,-6
599621557560721024,-4
599621557568407680,-2
599621557576094208,0
599621557583780736,2
599621557591467392,4
599621557599153920,6
599621557606840448,6
599621557614526976,9
599621557622213632,11
599621557629900160,13
599621557637586688,13
599621557645273344,13
599621557652959872,13
599621557660646400,13
599621557668332928,13
599621557676019584,16
599621557683706112,16
599621557691392640,13
599621557699079296,11
599621557706765824,9
599621557714452352,6
599621557722138880,4
599621557729825536,9
599621557737512064,34
599621557745198592,50
599621557752885222,48
599621557760571648,50
599621557768258048,50
599621557775944448,32
599621557783630976,16
599621557791317376,13
599621557799003776,16
599621557806690176,16
599621557814376576,16
599621557822063104,13
599621557829749504,16
599621557837435904,16
599621557845122304,18
599621557852808704,18
599621557860495232,13
599621557868181632,-32
599621557875868032,-140
599621557883554432,-177
599621557891240832,53
599621557898927360,508
599621557906613760,813
599621557914300160,607
599621557921986560,94
599621557929672960,-145
599621557937359488,-83
599621557945045888,-53
599621557952732288,-34
599621557960418688,23
599621557968105088,13
599621557975791488,-11
599621557983478016,6
599621557991164416,18
599621557998850816,13
599621558006537216,18
599621558014223616,25
599621558021910144,27
599621558029596544,30
599621558037282944,41
599621558044969344,46
599621558052655744,43
599621558060342272,46
599621558068028672,53
599621558075715072,57
599621558083401472,60
599621558091087872,67
599621558098774400,76
599621558106460800,83
599621558114147200,90
599621558121833600,101
599621558129520000,110
599621558137206528,120
599621558144892928,129
599621558152579328,136
599621558160265728,138
599621558167952128,129
599621558175638656,108
599621558183325056,76
599621558191011456,39
599621558198697856,9
599621558206384256,-13
599621558214070784,-30
599621558221757184,-36
599621558229443584,-43
599621558237129984,-43
599621558244816384,-39
599621558252502912,-39
599621558260189312,-34
599621558267875712,-27
599621558275562112,-25
599621558283248512,-25
599621558290935040,-20
599621558298621440,-16
599621558306307840,-18
599621558313994253,-16
599621558321680896,-11
599621558329367552,-11
599621558337054336,-9
599621558344740992,-6
599621558352427648,-4
599621558360114432,-2
599621558367801088,-2
599621558375487872,-2
599621558383174528,2
599621558390861184,4
599621558398547968,4
599621558406234624,4
599621558413921280,6
599621558421608064,9
599621558429294720,9
599621558436981504,9
599621558444668160,9
599621558452354816,11
599621558460041600,11
599621558467728256,11
599621558475414912,13
599621558483101696,13
599621558490788352,13
599621558498475136,16
599621558506161792,13
599621558513848448,11
599621558521535232,9
599621558529221888,4
599621558536908544,2
599621558544595328,11
599621558552281984,34
599621558559968768,50
599621558567655424,48
599621558575342080,46
599621558583028864,41
599621558590715520,27
599621558598402176,13
599621558606088960,13
599621558613775616,16
599621558621462400,13
599621558629149056,11
599621558636835712,11
599621558644522496,13
599621558652209152,16
599621558659895808,16
599621558667582592,16
599621558675269248,9
599621558682956032,-43
599621558690642688,-157
599621558698329344,-177
599621558706016128,90
599621558713702784,550
599621558721389440,801
599621558729076224,520
599621558736762880,0
599621558744449664,-184
599621558752136320,-104
599621558759822976,-80
599621558767509760,-43
599621558775196416,27
599621558782883072,11
599621558790569856,-13
599621558798256512,13
599621558805943296,20
599621558813629952,11
599621558821316608,18
599621558829003392,27
599621558836690048,25
599621558844376704,30
599621558852063488,34
599621558859750144,39
599621558867436928,43
599621558875123632,50
599621558882810240,53
599621558890496896,57
599621558898183680,64
599621558905870336,71
599621558913556992,80
599621558921243776,87
599621558928930432,94
599621558936617216,106
599621558944303872,117
599621558951990528,124
599621558959677312,134
599621558967363968,138
599621558975050624,136
599621558982737408,127
599621558990424064,104
599621558998110848,69
599621559005797504,32
599621559013484160,4
599621559021170944,-18
599621559028857600,-36
599621559036544256,-46
599621559044231040,-50
599621559051917696,-50
599621559059604480,-50
599621559067291136,-46
599621559074977792,-41
599621559082664576,-39
599621559090351232,-36
599621559098037888,-30
599621559105724672,-30
599621559113411328,-27
599621559121098112,-25
599621559128784768,-23
599621559136471424,-20
599621559144158208,-18
599621559151844864,-13
599621559159531520,-11
599621559167218304,-11
599621559174904960,-11
599621559182591744,-9
599621559190278400,-6
599621559197965056,-6
599621559205651840,-9
599621559213338496,-6
599621559221025152,-4
599621559228711936,-2
599621559236398592,-2
599621559244085376,-2
599621559251772032,2
599621559259458688,2
599621559267145472,0
599621559274832128,2
599621559282518784,4
599621559290205568,4
599621559297892224,2
599621559305579008,4
599621559313265664,6
599621559320952320,6
599621559328639104,4
599621559336325760,4
599621559344012416,4
599621559351699200,4
599621559359385856,0
599621559367072640,9
599621559374759296,34
599621559382445952,46
599621559390132736,43
599621559397819392,46
599621559405506048,41
599621559413192832,20
599621559420879488,6
599621559428566272,11
599621559436253015,13
599621559443939712,11
599621559451626368,9
599621559459313152,11
599621559466999808,11
599621559474686464,11
599621559482373248,16
599621559490059904,16
599621559497746688,13
599621559505433344,-23
599621559513120000,-122
599621559520806784,-180
599621559528493440,4
599621559536180096,402
599621559543866880,663
599621559551553536,457
599621559559240320,0
599621559566926976,-184
599621559574613632,-115
599621559582300416,-92
599621559589987072,-41
599621559597673728,50
599621559605360512,48
599621559613047168,13
599621559620733952,30
599621559628420608,43
599621559636107264,36
599621559643794048,39
599621559651480704,48
599621559659167360,50
599621559666854144,53
599621559674540800,55
599621559682227584,57
599621559689914240,62
599621559697600896,69
599621559705287680,73
599621559712974336,73
599621559720660992,80
599621559728347776,87
599621559736034432,92
599621559743721216,99
599621559751407872,110
599621559759094528,120
599621559766781312,127
599621559774467968,134
599621559782154624,140
599621559789841408,145
599621559797528064,143
599621559805214848,136
599621559812901504,117
599621559820588160,80
599621559828274944,43
599621559835961600,13
599621559843648256,-9
599621559851335040,-25
599621559859021696,-34
599621559866708480,-41
599621559874395136,-41
599621559882081792,-39
599621559889768576,-39
599621559897455232,-34
599621559905141888,-30
599621559912828672,-25
599621559920515328,-23
599621559928202112,-23
599621559935888768,-23
599621559943575424,-18
599621559951262208,-16
599621559958948864,-13
599621559966635520,-9
599621559974322304,-6
599621559982008960,-6
599621559989695744,-2
599621559997382394,2
599621560005069056,4
599621560012755712,4
599621560020442496,4
599621560028129152,6
599621560035815808,11
599621560043502592,11
599621560051189248,9
599621560058876032,11
599621560066562688,13
599621560074249344,11
599621560081936128,11
599621560089622784,13
599621560097309440,13
599621560104996224,11
599621560112682880,13
599621560120369664,16
599621560128056320,16
599621560135742976,13
599621560143429760,13
599621560151116416,11
599621560158803072,13
599621560166489856,36
599621560174176512,53
599621560181863296,53
599621560189549952,53
599621560197236608,53
599621560204923392,39
599621560212610048,20
599621560220296704,16
599621560227983488,18
599621560235670144,20
599621560243356928,18
599621560251043584,18
599621560258730240,20
599621560266417024,20
599621560274103680,20
599621560281790336,23
599621560289477120,23
599621560297163776,2
599621560304850560,-76
599621560312537216,-161
599621560320223872,-62
599621560327910656,291
599621560335597312,637
599621560343283968,591
599621560350970752,166
599621560358657408,-129
599621560366344192,-108
599621560374030848,-62
599621560381717504,-43
599621560389404288,34
599621560397090944,55
599621560404777600,18
599621560412464384,27
599621560420151040,46
599621560427837824,39
599621560435524480,39
599621560443211136,48
599621560450897920,48
599621560458584576,48
599621560466271232,55
599621560473958016,57
599621560481644672,60
599621560489331456,64
599621560497018112,69
599621560504704768,71
599621560512391552,78
599621560520078208,83
599621560527764864,87
599621560535451648,94
599621560543138304,104
599621560550825088,108
599621560558511773,115
599621560566198400,124
599621560573885056,134
599621560581571840,138
599621560589258496,138
599621560596945152,134
599621560604631936,120
599621560612318592,92
599621560620005376,57
599621560627692032,30
599621560635378688,6
599621560643065472,-11
599621560650752128,-20
599621560658438784,-25
599621560666125568,-27
599621560673812224,-27
599621560681499008,-25
599621560689185664,-20
599621560696872320,-18
599621560704559104,-18
599621560712245760,-16
599621560719932416,-13
599621560727619200,-11
599621560735305856,-9
599621560742992640,-9
599621560750679296,-6
599621560758365952,-4
599621560766052736,-2
599621560773739392,-2
599621560781426048,0
599621560789112832,0
599621560796799488,2
599621560804486272,4
599621560812172928,6
599621560819859584,11
599621560827546368,11
599621560835233024,9
599621560842919680,11
599621560850606464,13
599621560858293120,13
599621560865979904,13
599621560873666560,16
599621560881353216,16
599621560889040000,13
599621560896726656,18
599621560904413312,18
599621560912100096,16
599621560919786752,18
599621560927473536,20
599621560935160192,18
599621560942846848,20
599621560950533632,23
599621560958220288,23
599621560965906944,20
599621560973593728,18
599621560981280384,16
599621560988967168,13
599621560996653824,20
599621561004340480,46
599621561012027264,57
599621561019713920,57
599621561027400576,57
599621561035087360,53
599621561042774016,36
599621561050460800,23
599621561058147456,20
599621561065834112,23
599621561073520896,23
599621561081207552,23
599621561088894208,25
599621561096580992,25
599621561104267648,23
599621561111954432,25
599621561119641152,25
599621561127327744,20
599621561135014400,-23
599621561142701184,-129
599621561150387840,-171
599621561158074496,48
599621561165761280,485
599621561173447936,778
599621561181134720,577
599621561188821376,80
599621561196508032,-145
599621561204194816,-78
599621561211881472,-48
599621561219568128,-32
599621561227254912,25
599621561234941568,20
599621561242628352,-4
599621561250315008,11
599621561258001664,23
599621561265688448,16
599621561273375104,20
599621561281061760,27
599621561288748544,27
599621561296435200,32
599621561304121984,36
599621561311808640,39
599621561319495296,41
599621561327182080,48
599621561334868736,53
599621561342555392,55
599621561350242176,60
599621561357928832,67
599621561365615616,71
599621561373302272,76
599621561380988928,85
599621561388675712,94
599621561396362368,99
599621561404049024,106
599621561411735808,113
599621561419422464,120
599621561427109248,122
599621561434795904,117
599621561442482560,101
599621561450169344,76
599621561457856000,48
599621561465542656,23
599621561473229440,2
599621561480916096,-13
599621561488602880,-23
599621561496289536,-27
599621561503976192,-27
599621561511662976,-27
599621561519349632,-25
599621561527036288,-23
599621561534723072,-18
599621561542409728,-16
599621561550096512,-13
599621561557783168,-11
599621561565469824,-9
599621561573156608,-6
599621561580843264,-6
599621561588529920,-4
599621561596216704,0
599621561603903360,2
599621561611590144,2
599621561619276800,4
599621561626963456,6
599621561634650240,9
599621561642336896,9
599621561650023552,9
599621561657710336,11
599621561665396992,11
599621561673083776,13
599621561680770531,16
599621561688457216,16
599621561696143872,16
599621561703830656,16
599621561711517312,16
599621561719203968,16
599621561726890752,16
599621561734577408,13
599621561742264192,16
599621561749950848,16
599621561757637504,18
599621561765324288,16
599621561773010944,16
599621561780697600,18
599621561788384384,18
599621561796071040,18
599621561803757824,20
599621561811444480,20
599621561819131136,18
599621561826817920,20
599621561834504576,23
599621561842191232,23
599621561849878016,23
599621561857564672,23
599621561865251456,20
599621561872938112,16
599621561880624768,11
599621561888311552,18
599621561895998208,39
599621561903684864,55
599621561911371648,57
599621561919058304,57
599621561926745088,57
599621561934431744,43
599621561942118400,25
599621561949805184,20
599621561957491840,23
599621561965178496,25
599621561972865280,23
599621561980551936,25
599621561988238720,25
599621561995925376,25
599621562003612032,25
599621562011298816,25
599621562018985472,25
599621562026672128,-11
599621562034358912,-120
599621562042045568,-191
599621562049732352,-18
599621562057419008,427
599621562065105664,829
599621562072792448,748
599621562080479104,231
599621562088165760,-104
599621562095852544,-78
599621562103539200,-43
599621562111225984,-43
599621562118912640,6
599621562126599296,11
599621562134286080,-18
599621562141972736,-2
599621562149659392,13
599621562157346176,6
599621562165032832,11
599621562172719616,18
599621562180406272,18
599621562188092928,23
599621562195779712,30
599621562203466368,32
599621562211153024,34
599621562218839808,39
599621562226526464,41
599621562234213248,43
599621562241899914,50
599621562249586304,55
599621562257272704,62
599621562264958976,67
599621562272645376,73
599621562280331776,80
599621562288018048,90
599621562295704448,97
599621562303390848,101
599621562311077120,108
599621562318763520,113
599621562326449920,113
599621562334136192,106
599621562341822592,83
599621562349508864,55
599621562357195264,27
599621562364881664,4
599621562372567936,-11
599621562380254336,-23
599621562387940736,-30
599621562395627008,-34
599621562403313408,-34
599621562410999808,-32
599621562418686080,-30
599621562426372480,-25
599621562434058880,-23
599621562441745152,-20
599621562449431552,-18
599621562457117952,-13
599621562464804224,-11
599621562472490624,-11
599621562480177024,-11
599621562487863296,-6
599621562495549696,-4
599621562503236096,-6
599621562510922368,-6
599621562518608768,-2
599621562526295040,0
599621562533981440,2
599621562541667840,2
599621562549354112,0
599621562557040512,2
599621562564726912,4
599621562572413184,4
599621562580099584,2
599621562587785984,4
599621562595472256,4
599621562603158656,4
599621562610845056,4
599621562618531328,6
599621562626217728,6
599621562633904128,4
599621562641590400,9
599621562649276800,9
599621562656963200,4
599621562664649472,6
599621562672335872,9
599621562680022272,6
599621562687708544,6
599621562695394944,9
599621562703081216,9
599621562710767616,6
599621562718454016,6
599621562726140288,9
599621562733826688,9
599621562741513088,6
599621562749199360,9
599621562756885760,11
599621562764572160,13
599621562772258432,11
599621562779944832,9
599621562787631232,6
599621562795317504,6
599621562803003862,2
599621562810690560,9
599621562818377216,32
599621562826063872,48
599621562833750400,46
599621562841437056,46
599621562849123712,43
599621562856810368,25
599621562864497024,11
599621562872183680,11
599621562879870208,11
599621562887556864,13
599621562895243520,11
599621562902930176,9
599621562910616832,9
599621562918303488,11
599621562925990016,11
599621562933676672,13
599621562941363328,4
599621562949049984,-53
599621562956736640,-168
599621562964423296,-177
599621562972109824,104
599621562979796480,556
599621562987483136,771
599621562995169792,466
599621563002856448,-34
599621563010543104,-191
599621563018229632,-106
599621563025916288,-80
599621563033602944,-32
599621563041289600,36
599621563048976256,18
599621563056662912,-6
599621563064349440,18
599621563072036096,25
599621563079722752,16
599621563087409408,23
599621563095096064,30
599621563102782720,30
599621563110469248,34
599621563118155904,39
599621563125842560,43
599621563133529216,48
599621563141215872,53
599621563148902400,55
599621563156589056,60
599621563164275712,64
599621563171962368,69
599621563179649024,78
599621563187335680,87
599621563195022208,92
599621563202708864,99
599621563210395520,108
599621563218082176,115
599621563225768832,120
599621563233455488,124
599621563241142016,124
599621563248828672,117
599621563256515328,99
599621563264201984,71
599621563271888640,36
599621563279575296,6
599621563287261824,-16
599621563294948480,-32
599621563302635136,-43
599621563310321792,-48
599621563318008448,-48
599621563325695104,-48
599621563333381632,-46
599621563341068288,-41
599621563348754944,-39
599621563356441600,-39
599621563364128154,-34
599621563371814784,-30
599621563379501440,-27
599621563387188224,-27
599621563394874880,-25
599621563402561536,-20
599621563410248320,-18
599621563417934976,-16
599621563425621760,-11
599621563433308416,-11
599621563440995072,-11
599621563448681856,-9
599621563456368512,-9
599621563464055168,-6
599621563471741952,-4
599621563479428608,-4
599621563487115392,-4
599621563494802048,-2
599621563502488704,-2
599621563510175488,-4
599621563517862144,-2
599621563525548800,0
599621563533235584,2
599621563540922240,0
599621563548609024,0
599621563556295680,2
599621563563982336,0
599621563571669120,2
599621563579355776,6
599621563587042432,6
599621563594729216,2
599621563602415872,2
599621563610102656,4
599621563617789312,4
599621563625475968,0
599621563633162752,-2
599621563640849408,13
599621563648536064,36
599621563656222848,43
599621563663909504,39
599621563671596288,41
599621563679282944,30
599621563686969600,11
599621563694656384,4
599621563702343040,6
599621563710029696,9
599621563717716480,11
599621563725403136,9
599621563733089920,6
599621563740776576,6
599621563748463232,6
599621563756150016,9
599621563763836672,11
599621563771523328,-2
599621563779210112,-78
599621563786896768,-180
599621563794583552,-108
599621563802270208,231
599621563809956864,603
599621563817643648,591
599621563825330304,166
599621563833016960,-166
599621563840703744,-152
599621563848390400,-92
599621563856077184,-73
599621563863763840,13
599621563871450496,57
599621563879137280,18
599621563886823936,18
599621563894510592,39
599621563902197376,36
599621563909884032,36
599621563917570816,46
599621563925257533,46
599621563932944128,48
599621563940630784,53
599621563948317568,55
599621563956004224,60
599621563963690880,64
599621563971377664,67
599621563979064320,71
599621563986751104,76
599621563994437760,83
599621564002124416,90
599621564009811200,94
599621564017497856,101
599621564025184512,110
599621564032871296,117
599621564040557952,127
599621564048244736,134
599621564055931392,138
599621564063618048,140
599621564071304832,134
599621564078991488,117
599621564086678144,90
599621564094364928,53
599621564102051584,18
599621564109738368,-4
599621564117425024,-20
599621564125111680,-32
599621564132798464,-39
599621564140485120,-41
599621564148171776,-39
599621564155858560,-39
599621564163545216,-36
599621564171232000,-32
599621564178918656,-32
599621564186605312,-27
599621564194292096,-25
599621564201978752,-23
599621564209665408,-20
599621564217352192,-18
599621564225038848,-16
599621564232725632,-13
599621564240412288,-9
599621564248098944,-6
599621564255785728,-6
599621564263472384,-4
599621564271159040,-2
599621564278845824,0
599621564286532480,2
599621564294219264,4
599621564301905920,6
599621564309592576,4
599621564317279360,6
599621564324966016,6
599621564332652672,6
599621564340339456,6
599621564348026112,9
599621564355712896,9
599621564363399552,9
599621564371086208,9
599621564378772992,13
599621564386459648,13
599621564394146304,11
599621564401833088,11
599621564409519744,9
599621564417206528,6
599621564424893184,20
599621564432579840,41
599621564440266624,48
599621564447953280,46
599621564455639936,46
599621564463326720,39
599621564471013376,23
599621564478700160,13
599621564486386912,16
599621564494073600,16
599621564501760256,16
599621564509447040,18
599621564517133696,16
599621564524820352,16
599621564532507136,18
599621564540193792,18
599621564547880576,18
599621564555567232,2
599621564563253888,-64
599621564570940672,-161
599621564578627328,-108
599621564586313984,212
599621564594000768,605
599621564601687424,661
599621564609374208,270
599621564617060864,-104
599621564624747520,-131
599621564632434304,-67
599621564640120960,-55
599621564647807616,9
599621564655494400,48
599621564663181056,16
599621564670867840,11
599621564678554496,34
599621564686241152,34
599621564693927936,30
599621564701614592,36
599621564709301248,39
599621564716988032,41
599621564724674688,48
599621564732361472,48
599621564740048128,53
599621564747734784,60
599621564755421568,62
599621564763108224,62
599621564770794880,69
599621564778481664,73
599621564786168320,78
599621564793855104,85
599621564801541760,94
599621564809228416,101
599621564816915200,108
599621564824601856,117
599621564832288512,124
599621564839975296,129
599621564847661952,131
599621564855348736,127
599621564863035392,115
599621564870722048,90
599621564878408832,57
599621564886095488,27
599621564893782144,4
599621564901468928,-13
599621564909155584,-25
599621564916842368,-30
599621564924529024,-32
599621564932215680,-32
599621564939902464,-30
599621564947589120,-25
599621564955275776,-23
599621564962962560,-20
599621564970649216,-18
599621564978336000,-18
599621564986022656,-16
599621564993709312,-13
599621565001396096,-11
599621565009082752,-11
599621565016769408,-9
599621565024456192,-6
599621565032142848,-6
599621565039829632,-2
599621565047516291,0
599621565055202944,0
599621565062889600,2
599621565070576384,4
599621565078263040,6
599621565085949696,4
599621565093636480,6
599621565101323136,9
599621565109009920,9
599621565116696576,9
599621565124383232,9
599621565132070016,9
599621565139756672,11
599621565147443328,11
599621565155130112,11
599621565162816768,13
599621565170503552,13
599621565178190208,11
599621565185876864,11
599621565193563648,11
599621565201250304,9
599621565208936960,4
599621565216623744,6
599621565224310400,27
599621565231997184,46
599621565239683840,46
599621565247370496,48
599621565255057280,50
599621565262743936,32
599621565270430592,13
599621565278117376,13
599621565285804032,16
599621565293490816,13
599621565301177472,13
599621565308864128,16
599621565316550912,16
599621565324237568,16
599621565331924224,16
599621565339611008,18
599621565347297664,18
599621565354984448,-16
599621565362671104,-113
599621565370357760,-182
599621565378044544,-23
599621565385731200,390
599621565393417856,755
599621565401104640,672
599621565408791296,184
599621565416478080,-134
599621565424164736,-101
599621565431851392,-53
599621565439538176,-46
599621565447224832,13
599621565454911488,25
599621565462598272,-6
599621565470284928,4
599621565477971712,20
599621565485658368,16
599621565493345024,18
599621565501031808,27
599621565508718464,25
599621565516405120,27
599621565524091904,32
599621565531778560,36
599621565539465344,41
599621565547152000,46
599621565554838656,50
599621565562525440,55
599621565570212096,60
599621565577898752,64
599621565585585536,71
599621565593272192,76
599621565600958976,83
599621565608645674,92
599621565616332032,99
599621565624018432,106
599621565631704704,115
599621565639391104,120
599621565647077504,122
599621565654763776,117
599621565662450176,101
599621565670136576,73
599621565677822848,43
599621565685509248,13
599621565693195648,-6
599621565700881920,-20
599621565708568320,-30
599621565716254592,-34
599621565723940992,-36
599621565731627392,-34
599621565739313664,-32
599621565747000064,-30
599621565754686464,-27
599621565762372736,-25
599621565770059136,-23
599621565777745536,-20
599621565785431808,-18
599621565793118208,-16
599621565800804608,-13
599621565808490880,-11
599621565816177280,-9
599621565823863680,-6
599621565831549952,-4
599621565839236352,-2
599621565846922752,-2
599621565854609024,0
599621565862295424,2
599621565869981824,4
599621565877668096,4
599621565885354496,6
599621565893040768,6
599621565900727168,6
599621565908413568,9
599621565916099840,9
599621565923786240,11
599621565931472640,11
599621565939158912,13
599621565946845312,13
599621565954531712,13
599621565962217984,13
599621565969904384,16
599621565977590784,18
599621565985277056,16
599621565992963456,16
599621566000649856,16
599621566008336128,16
599621566016022528,16
599621566023708928,16
599621566031395200,13
599621566039081600,11
599621566046768000,6
599621566054454272,9
599621566062140672,32
599621566069826944,53
599621566077513344,53
599621566085199744,53
599621566092886016,55
599621566100572416,41
599621566108258816,20
599621566115945088,16
599621566123631488,18
599621566131317888,20
599621566139004160,20
599621566146690560,18
599621566154376960,18
599621566162063232,20
599621566169749622,20
599621566177436288,20
599621566185122944,18
599621566192809600,-16
599621566200496128,-122
599621566208182784,-194
599621566215869440,-20
599621566223556096,422
599621566231242752,815
599621566238929408,725
599621566246615936,208
599621566254302592,-122
599621566261989248,-92
599621566269675904,-55
599621566277362560,-50
599621566285049216,2
599621566292735744,6
599621566300422400,-23
599621566308109056,-4
599621566315795712,11
599621566323482368,2
599621566331169024,6
599621566338855552,16
599621566346542208,16
599621566354228864,20
599621566361915520,25
599621566369602176,27
599621566377288832,30
599621566384975360,36
599621566392662016,43
599621566400348672,48
599621566408035328,53
599621566415721984,57
599621566423408640,64
599621566431095168,71
599621566438781824,78
599621566446468480,87
599621566454155136,97
599621566461841792,104
599621566469528448,113
599621566477214976,115
599621566484901632,117
599621566492588288,117
599621566500274944,104
599621566507961600,78
599621566515648128,43
599621566523334784,13
599621566531021440,-9
599621566538708096,-25
599621566546394752,-34
599621566554081408,-41
599621566561767936,-41
599621566569454592,-39
599621566577141248,-39
599621566584827904,-36
599621566592514560,-34
599621566600201216,-32
599621566607887744,-27
599621566615574400,-25
599621566623261056,-20
599621566630947712,-18
599621566638634368,-16
599621566646321024,-16
599621566654007552,-16
599621566661694208,-13
599621566669380864,-9
599621566677067520,-9
599621566684754176,-9
599621566692440832,-6
599621566700127360,-6
599621566707814016,-4
599621566715500672,-2
599621566723187328,-2
599621566730873914,0
599621566738560512,0
599621566746247168,2
599621566753933952,2
599621566761620608,0
599621566769307264,0
599621566776994048,0
599621566784680704,2
599621566792367488,2
599621566800054144,2
599621566807740800,2
599621566815427584,2
599621566823114240,2
599621566830800896,2
599621566838487680,4
599621566846174336,4
599621566853861120,2
599621566861547776,2
599621566869234432,0
599621566876921216,0
599621566884607872,-2
599621566892294528,2
599621566899981312,23
599621566907667968,41
599621566915354752,43
599621566923041408,41
599621566930728064,36
599621566938414848,18
599621566946101504,4
599621566953788160,4
599621566961474944,9
599621566969161600,6
599621566976848384,6
599621566984535040,6
599621566992221696,6
599621566999908480,6
599621567007595136,9
599621567015281792,9
599621567022968576,4
599621567030655232,-41
599621567038342016,-150
599621567046028672,-187
599621567053715328,53
599621567061402112,496
599621567069088768,755
599621567076775424,503
599621567084462208,-4
599621567092148864,-201
599621567099835648,-120
599621567107522304,-90
599621567115208960,-46
599621567122895744,34
599621567130582400,23
599621567138269056,-9
599621567145955840,18
599621567153642496,30
599621567161329280,18
599621567169015936,25
599621567176702592,34
599621567184389376,32
599621567192076032,34
599621567199762688,39
599621567207449472,46
599621567215136128,50
599621567222822912,55
599621567230509568,60
599621567238196224,67
599621567245883008,69
599621567253569664,73
599621567261256320,80
599621567268943104,90
599621567276629760,99
599621567284316544,108
599621567292003293,115
599621567299689984,124
599621567307376640,129
599621567315063424,134
599621567322750080,134
599621567330436736,124
599621567338123520,99
599621567345810176,62
599621567353496960,25
599621567361183616,-4
599621567368870272,-30
599621567376557056,-43
599621567384243712,-50
599621567391930368,-57
599621567399617152,-57
599621567407303808,-53
599621567414990592,-50
599621567422677248,-48
599621567430363904,-46
599621567438050688,-39
599621567445737344,-39
599621567453424000,-39
599621567461110784,-36
599621567468797440,-32
599621567476484224,-30
599621567484170880,-27
599621567491857536,-25
599621567499544320,-23
599621567507230976,-16
599621567514917632,-16
599621567522604416,-18
599621567530291072,-13
599621567537977856,-9
599621567545664512,-6
599621567553351168,-6
599621567561037952,-4
599621567568724608,-6
599621567576411264,-6
599621567584098048,-4
599621567591784704,-4
599621567599471488,-4
599621567607158144,-4
599621567614844800,-4
599621567622531584,-4
599621567630218240,-2
599621567637904896,-2
599621567645591680,0
599621567653278336,2
599621567660965120,0
599621567668651776,0
599621567676338432,2
599621567684025216,2
599621567691711872,0
599621567699398528,-4
599621567707085312,-6
599621567714771968,0
599621567722458752,18
599621567730145408,36
599621567737832064,39
599621567745518848,36
599621567753205504,32
599621567760892160,13
599621567768578944,4
599621567776265600,2
599621567783952384,4
599621567791639040,4
599621567799325696,2
599621567807012480,2
599621567814699136,4
599621567822385792,4
599621567830072576,4
599621567837759232,9
599621567845446016,4
599621567853132672,-32
599621567860818944,-129
599621567868505216,-180
599621567876191488,9
599621567883877760,404
599621567891564032,654
599621567899250432,436
599621567906936704,-18
599621567914622976,-191
599621567922309248,-117
599621567929995520,-92
599621567937681792,-43
599621567945368064,43
599621567953054336,39
599621567960740608,6
599621567968427008,25
599621567976113280,36
599621567983799552,30
599621567991485824,34
599621567999172096,41
599621568006858368,41
599621568014544640,46
599621568022230912,53
599621568029917184,55
599621568037603456,57
599621568045289856,62
599621568052976128,64
599621568060662400,71
599621568068348672,78
599621568076034944,83
599621568083721216,87
599621568091407488,97
599621568099093760,106
599621568106780032,115
599621568114466432,122
599621568122152704,127
599621568129838976,131
599621568137525248,136
599621568145211520,136
599621568152897792,124
599621568160584064,101
599621568168270336,67
599621568175956608,30
599621568183643008,0
599621568191329280,-18
599621568199015552,-34
599621568206701824,-43
599621568214388096,-46
599621568222074368,-46
599621568229760640,-43
599621568237446912,-39
599621568245133184,-36
599621568252819456,-34
599621568260505856,-32
599621568268192128,-30
599621568275878400,-27
599621568283564672,-27
599621568291250944,-25
599621568298937216,-23
599621568306623488,-20
599621568314309760,-18
599621568321996032,-16
599621568329682432,-13
599621568337368704,-9
599621568345054976,-9
599621568352741248,-6
599621568360427520,-4
599621568368113792,-4
599621568375800064,0
599621568383486336,0
599621568391172608,0
599621568398859008,2
599621568406545280,4
599621568414231533,2
599621568421918208,2
599621568429604864,6
599621568437291648,6
599621568444978304,6
599621568452664960,9
599621568460351744,9
599621568468038400,6
599621568475725184,4
599621568483411840,4
599621568491098496,4
599621568498785280,2
599621568506471936,6
599621568514158592,27
599621568521845376,46
599621568529532032,43
599621568537218816,43
599621568544905472,39
599621568552592128,23
599621568560278912,9
599621568567965568,9
599621568575652224,11
599621568583339008,11
599621568591025664,11
599621568598712448,11
599621568606399104,11
599621568614085760,13
599621568621772544,13
599621568629459200,13
599621568637145856,9
599621568644832640,-34
599621568652519296,-134
599621568660206080,-161
599621568667892736,62
599621568675579392,466
599621568683266176,681
599621568690952832,432
599621568698639488,-9
599621568706326272,-159
599621568714012928,-92
599621568721699712,-64
599621568729386368,-18
599621568737073024,43
599621568744759808,27
599621568752446464,6
599621568760133120,27
599621568767819904,34
599621568775506560,27
599621568783193344,34
599621568790880000,36
599621568798566656,34
599621568806253440,36
599621568813940096,43
599621568821626752,46
599621568829313536,50
599621568837000192,55
599621568844686976,57
599621568852373632,64
599621568860060288,71
599621568867747072,73
599621568875433728,80
599621568883120384,90
599621568890807168,97
599621568898493824,104
599621568906180608,115
599621568913867264,122
599621568921553920,127
599621568929240704,129
599621568936927360,129
599621568944614016,120
599621568952300800,97
599621568959987456,62
599621568967674240,30
599621568975360912,4
599621568983047552,-16
599621568990734208,-27
599621568998420992,-34
599621569006107648,-39
599621569013794304,-41
599621569021481088,-39
599621569029167744,-34
599621569036854528,-30
599621569044541184,-27
599621569052227840,-27
599621569059914624,-23
599621569067601280,-20
599621569075287936,-18
599621569082974720,-16
599621569090661376,-16
599621569098348160,-13
599621569106034816,-13
599621569113721472,-9
599621569121408256,-6
599621569129094912,-4
599621569136781568,-4
599621569144468352,-2
599621569152155008,0
599621569159841792,0
599621569167528448,2
599621569175215104,4
599621569182901888,6
599621569190588544,6
599621569198275200,9
599621569205961984,9
599621569213648640,9
599621569221335424,9
599621569229022080,9
599621569236708736,9
599621569244395520,11
599621569252082176,11
599621569259768832,11
599621569267455616,11
599621569275142272,11
599621569282829056,11
599621569290515712,11
599621569298202368,9
599621569305889152,9
599621569313575808,9
599621569321262464,6
599621569328949248,2
599621569336635904,6
599621569344322688,32
599621569352009344,46
599621569359696000,46
599621569367382784,48
599621569375069440,46
599621569382756096,30
599621569390442880,13
599621569398129536,11
599621569405816320,13
599621569413502976,13
599621569421189632,11
599621569428876416,11
599621569436563072,13
599621569444249728,16
599621569451936512,16
599621569459623168,16
599621569467309952,11
599621569474996608,-27
599621569482683264,-131
599621569490370048,-177
599621569498056704,32
599621569505743360,466
599621569513430144,776
599621569521116800,593
599621569528803584,92
599621569536490295,-150
599621569544176896,-85
599621569551863552,-53
599621569559550336,-41
599621569567236992,18
599621569574923648,18
599621569582610432,-9
599621569590297088,6
599621569597983872,20
599621569605670528,11
599621569613357184,16
599621569621043968,23
599621569628730624,23
599621569636417280,25
599621569644104064,30
599621569651790720,34
599621569659477504,39
599621569667164160,43
599621569674850816,48
599621569682537600,53
599621569690224256,57
599621569697910912,62
599621569705597696,69
599621569713284352,76
599621569720971136,83
599621569728657792,92
599621569736344448,101
599621569744031232,106
599621569751717888,113
599621569759404544,120
599621569767091328,122
599621569774777984,115
599621569782464768,97
599621569790151424,69
599621569797838080,32
599621569805524864,4
599621569813211520,-13
599621569820898176,-27
599621569828584960,-39
599621569836271616,-41
599621569843958400,-39
599621569851645056,-39
599621569859331712,-36
599621569867018496,-32
599621569874705152,-30
599621569882391808,-30
599621569890078592,-25
599621569897765248,-23
599621569905452032,-20
599621569913138688,-18
599621569920825344,-16
599621569928512128,-16
599621569936198784,-13
599621569943885440,-9
599621569951572224,-6
599621569959258880,-6
599621569966945664,-4
599621569974632320,-4
599621569982318976,-2
599621569990005760,0
599621569997692416,0
599621570005379072,2
599621570013065856,2
599621570020752512,2
599621570028439296,4
599621570036125952,6
599621570043812608,6
599621570051499392,6
599621570059186048,9
599621570066872704,9
599621570074559488,9
599621570082246144,11
599621570089932928,11
599621570097619674,9
599621570105306240,9
599621570112992768,11
599621570120679168,11
599621570128365696,9
599621570136052224,11
599621570143738752,13
599621570151425152,9
599621570159111680,6
599621570166798208,6
599621570174484736,6
599621570182171136,2
599621570189857664,4
599621570197544192,25
599621570205230720,46
599621570212917120,48
599621570220603648,46
599621570228290176,48
599621570235976704,36
599621570243663104,13
599621570251349632,6
599621570259036160,13
599621570266722688,13
599621570274409088,11
599621570282095616,11
599621570289782144,13
599621570297468672,13
599621570305155072,13
599621570312841600,13
599621570320528128,11
599621570328214528,-18
599621570335901056,-117
599621570343587584,-198
599621570351274112,-43
599621570358960512,383
599621570366647040,776
599621570374333568,716
599621570382020096,217
599621570389706496,-129
599621570397393024,-106
599621570405079552,-60
599621570412766080,-55
599621570420452480,4
599621570428139008,13
599621570435825536,-18
599621570443512064,-4
599621570451198464,13
599621570458884992,4
599621570466571520,6
599621570474258048,18
599621570481944448,18
599621570489630976,20
599621570497317504,25
599621570505004032,32
599621570512690432,34
599621570520376960,39
599621570528063488,43
599621570535749888,50
599621570543436416,55
599621570551122944,57
599621570558809472,64
599621570566495872,73
599621570574182400,80
599621570581868928,90
599621570589555456,99
599621570597241856,108
599621570604928384,117
599621570612614912,122
599621570620301440,124
599621570627987840,120
599621570635674368,104
599621570643360896,71
599621570651047424,39
599621570658733796,6
599621570666420608,-18
599621570674107392,-34
599621570681794176,-43
599621570689480960,-50
599621570697167744,-50
599621570704854528,-48
599621570712541312,-48
599621570720227968,-48
