599621150296125056,157
599621150303811840,164
599621150311498624,168
599621150319185408,175
599621150326872192,177
599621150334558976,184
599621150342245760,198
599621150349932544,208
599621150357619328,217
599621150365306112,224
599621150372992896,231
599621150380679552,233
599621150388366336,233
599621150396053120,226
599621150403739904,210
599621150411426688,182
599621150419113472,150
599621150426800256,122
599621150434487040,104
599621150442173824,90
599621150449860608,80
599621150457547392,76
599621150465234176,76
599621150472920960,80
599621150480607616,83
599621150488294400,85
599621150495981184,90
599621150503667968,92
599621150511354714,92
599621150519041536,94
599621150526728320,97
599621150534415104,99
599621150542101888,101
599621150549788672,104
599621150557475456,104
599621150565162240,104
599621150572848896,106
599621150580535680,106
599621150588222464,110
599621150595909248,110
599621150603596032,113
599621150611282816,113
599621150618969600,115
599621150626656384,117
599621150634343168,117
599621150642029952,117
599621150649716736,117
599621150657403520,117
599621150665090176,117
599621150672776960,117
599621150680463744,117
599621150688150528,113
599621150695837312,108
599621150703524096,108
599621150711210880,120
599621150718897664,143
599621150726584448,150
599621150734271232,147
599621150741958016,152
599621150749644800,147
599621150757331456,127
599621150765018240,113
599621150772705024,115
599621150780391808,117
599621150788078592,115
599621150795765376,115
599621150803452160,117
599621150811138944,117
599621150818825728,117
599621150826512512,115
599621150834199296,101
599621150841886080,43
599621150849572736,-48
599621150857259520,-18
599621150864946304,258
599621150872633088,649
599621150880319872,781
599621150888006656,455
599621150895693440,34
599621150903380224,-62
599621150911067008,6
599621150918753792,27
599621150926440576,80
599621150934127360,127
599621150941814016,101
599621150949500800,92
599621150957187584,115
599621150964874368,115
599621150972561152,110
599621150980247936,120
599621150987934720,124
599621150995621504,124
599621151003308288,129
599621151010995072,134
599621151018681856,136
599621151026368640,140
599621151034055424,150
599621151041742080,154
599621151049428864,159
599621151057115648,171
599621151064802432,180
599621151072489180,189
599621151080176000,198
599621151087862784,210
599621151095549568,217
599621151103236352,221
599621151110923136,221
599621151118609920,217
599621151126296704,205
599621151133983360,182
599621151141670144,147
599621151149356928,117
599621151157043712,94
599621151164730496,78
599621151172417280,67
599621151180104064,64
599621151187790848,62
599621151195477632,60
599621151203164416,62
599621151210851200,69
599621151218537984,71
599621151226224640,73
599621151233911424,73
599621151241598208,78
599621151249284992,80
599621151256971776,83
599621151264658560,85
599621151272345344,87
599621151280032128,87
599621151287718912,90
599621151295405696,94
599621151303092480,94
599621151310779264,94
599621151318465920,94
599621151326152704,94
599621151333839488,94
599621151341526272,94
599621151349213056,94
599621151356899840,97
599621151364586624,99
599621151372273408,97
599621151379960192,97
599621151387646976,97
599621151395333760,97
599621151403020544,99
599621151410707200,99
599621151418393984,99
599621151426080768,99
599621151433767552,99
599621151441454336,99
599621151449141120,99
599621151456827904,101
599621151464514688,104
599621151472201472,101
599621151479888256,99
599621151487575040,97
599621151495261824,94
599621151502948480,92
599621151510635264,92
599621151518322048,106
599621151526008832,127
599621151533695616,134
599621151541382400,131
599621151549069184,134
599621151556755968,124
599621151564442752,106
599621151572129536,97
599621151579816320,99
599621151587503104,101
599621151595189888,101
599621151602876544,101
599621151610563328,101
599621151618250112,101
599621151625936896,101
599621151633623646,101
599621151641310336,94
599621151648996992,36
599621151656683776,-60
599621151664370432,-36
599621151672057088,238
599621151679743872,607
599621151687430528,714
599621151695117312,385
599621151702803968,-27
599621151710490624,-115
599621151718177408,-25
599621151725864064,4
599621151733550720,62
599621151741237504,127
599621151748924160,104
599621151756610944,83
599621151764297600,108
599621151771984256,110
599621151779671040,104
599621151787357696,113
599621151795044352,120
599621151802731136,117
599621151810417792,122
599621151818104576,129
599621151825791232,129
599621151833477888,131
599621151841164672,138
599621151848851328,145
599621151856537984,150
599621151864224768,157
599621151871911424,168
599621151879598208,180
599621151887284864,187
599621151894971520,194
599621151902658304,203
599621151910344960,205
599621151918031616,205
599621151925718400,203
599621151933405056,194
599621151941091840,175
599621151948778496,145
599621151956465152,115
599621151964151936,90
599621151971838592,71
599621151979525248,57
599621151987212032,48
599621151994898688,46
599621152002585472,46
599621152010272128,50
599621152017958784,55
599621152025645568,57
599621152033332224,57
599621152041018880,60
599621152048705664,64
599621152056392320,67
599621152064079104,69
599621152071765760,73
599621152079452416,73
599621152087139200,73
599621152094825856,78
599621152102512512,80
599621152110199296,80
599621152117885952,80
599621152125572736,83
599621152133259392,85
599621152140946048,85
599621152148632832,87
599621152156319488,90
599621152164006144,87
599621152171692928,87
599621152179379584,90
599621152187066368,90
599621152194753025,87
599621152202439680,87
599621152210126336,90
599621152217813120,90
599621152225499776,87
599621152233186432,87
599621152240873216,92
599621152248559872,92
599621152256246656,92
599621152263933312,90
599621152271619968,90
599621152279306752,87
599621152286993408,87
599621152294680064,90
599621152302366848,90
599621152310053504,87
599621152317740288,90
599621152325426944,90
599621152333113600,87
599621152340800384,85
599621152348487040,83
599621152356173696,83
599621152363860480,80
599621152371547136,90
599621152379233920,110
599621152386920576,122
599621152394607232,122
599621152402294016,120
599621152409980672,113
599621152417667328,99
599621152425354112,90
599621152433040768,90
599621152440727552,92
599621152448414208,92
599621152456100864,90
599621152463787648,92
599621152471474304,97
599621152479160960,97
599621152486847744,94
599621152494534400,92
599621152502221184,60
599621152509907840,-30
599621152517594496,-69
599621152525281280,115
599621152532967936,464
599621152540654592,656
599621152548341376,439
599621152556028032,34
599621152563714816,-110
599621152571401472,-41
599621152579088128,-9
599621152586774912,43
599621152594461568,129
599621152602148224,124
599621152609835008,92
599621152617521664,110
599621152625208448,122
599621152632895104,110
599621152640581760,115
599621152648268544,127
599621152655955200,127
599621152663641856,129
599621152671328640,131
599621152679015296,131
599621152686702080,136
599621152694388736,145
599621152702075392,150
599621152709762176,154
599621152717448832,164
599621152725135488,168
599621152732822272,173
599621152740508928,184
599621152748195712,194
599621152755882404,196
599621152763569024,198
599621152771255680,201
599621152778942464,201
599621152786629120,194
599621152794315776,175
599621152802002560,152
599621152809689216,122
599621152817376000,92
599621152825062656,71
599621152832749312,55
599621152840436096,46
599621152848122752,39
599621152855809408,36
599621152863496192,41
599621152871182848,43
599621152878869632,48
599621152886556288,50
599621152894242944,53
599621152901929728,53
599621152909616384,53
599621152917303040,57
599621152924989824,60
599621152932676480,64
599621152940363264,67
599621152948049920,69
599621152955736576,71
599621152963423360,73
599621152971110016,73
599621152978796672,76
599621152986483456,78
599621152994170112,80
599621153001856896,83
599621153009543552,83
599621153017230208,83
599621153024916992,83
599621153032603648,83
599621153040290304,83
599621153047977088,83
599621153055663744,85
599621153063350528,85
599621153071037184,85
599621153078723840,85
599621153086410624,85
599621153094097280,83
599621153101783936,85
599621153109470720,85
599621153117157376,83
599621153124844160,85
599621153132530816,87
599621153140217472,87
599621153147904256,85
599621153155590912,87
599621153163277568,90
599621153170964352,92
599621153178651008,90
599621153186337792,90
599621153194024448,92
599621153201711104,90
599621153209397888,87
599621153217084544,90
599621153224771200,90
599621153232457984,85
599621153240144640,85
599621153247831424,99
599621153255518080,120
599621153263204736,122
599621153270891520,120
599621153278578176,117
599621153286264832,110
599621153293951616,97
599621153301638272,87
599621153309325056,90
599621153317011783,90
599621153324698496,87
599621153332385152,90
599621153340071936,90
599621153347758592,85
599621153355445248,85
599621153363132032,85
599621153370818688,73
599621153378505472,13
599621153386192128,-71
599621153393878784,-20
599621153401565568,258
599621153409252224,561
599621153416938880,547
599621153424625664,187
599621153432312320,-85
599621153439999104,-71
599621153447685760,-18
599621153455372416,-2
599621153463059200,80
599621153470745856,124
599621153478432512,87
599621153486119296,85
599621153493805952,108
599621153501492736,104
599621153509179392,99
599621153516866048,110
599621153524552832,110
599621153532239488,110
599621153539926144,117
599621153547612928,120
599621153555299584,122
599621153562986368,127
599621153570673024,134
599621153578359680,138
599621153586046464,145
599621153593733120,150
599621153601419776,154
599621153609106560,164
599621153616793216,175
599621153624480000,180
599621153632166656,184
599621153639853312,189
599621153647540096,189
599621153655226752,182
599621153662913408,173
599621153670600192,154
599621153678286848,129
599621153685973632,101
599621153693660288,80
599621153701346944,64
599621153709033728,53
599621153716720384,46
599621153724407040,46
599621153732093824,46
599621153739780480,46
599621153747467264,48
599621153755153920,53
599621153762840576,57
599621153770527360,57
599621153778214016,57
599621153785900672,60
599621153793587456,62
599621153801274112,64
599621153808960896,64
599621153816647552,69
599621153824334208,71
599621153832020992,69
599621153839707648,71
599621153847394304,71
599621153855081088,71
599621153862767744,73
599621153870454528,76
599621153878141162,76
599621153885827840,76
599621153893514496,76
599621153901201280,78
599621153908887936,80
599621153916574592,80
599621153924261376,76
599621153931948032,78
599621153939634816,78
599621153947321472,78
599621153955008128,78
599621153962694912,78
599621153970381568,78
599621153978068224,80
599621153985755008,78
599621153993441664,78
599621154001128448,80
599621154008815104,80
599621154016501760,80
599621154024188544,80
599621154031875200,80
599621154039561856,83
599621154047248640,83
599621154054935296,80
599621154062622080,83
599621154070308736,83
599621154077995392,80
599621154085682176,78
599621154093368832,85
599621154101055488,104
599621154108742272,115
599621154116428928,113
599621154124115712,110
599621154131802368,106
599621154139489024,92
599621154147175808,83
599621154154862464,78
599621154162549120,80
599621154170235904,83
599621154177922560,85
599621154185609344,83
599621154193296000,83
599621154200982656,85
599621154208669440,85
599621154216356096,80
599621154224042752,57
599621154231729536,-20
599621154239416192,-73
599621154247102976,69
599621154254789632,390
599621154262476288,589
599621154270163072,406
599621154277849728,46
599621154285536384,-90
599621154293223168,-34
599621154300909824,-11
599621154308596608,27
599621154316283264,110
599621154323969920,113
599621154331656704,80
599621154339343360,94
599621154347030016,108
599621154354716800,97
599621154362403456,97
599621154370090240,106
599621154377776896,108
599621154385463552,108
599621154393150336,110
599621154400836992,117
599621154408523648,120
599621154416210432,120
599621154423897088,129
599621154431583872,138
599621154439270541,138
599621154446957184,143
599621154454643840,157
599621154462330624,166
599621154470017280,171
599621154477703936,175
599621154485390720,180
599621154493077376,180
599621154500764160,177
599621154508450816,171
599621154516137472,154
599621154523824256,134
599621154531510912,104
599621154539197568,78
599621154546884352,62
599621154554571008,48
599621154562257792,36
599621154569944448,32
599621154577631104,34
599621154585317888,34
599621154593004544,39
599621154600691200,41
599621154608377984,41
599621154616064640,43
599621154623751424,48
599621154631438080,50
599621154639124736,50
599621154646811520,53
599621154654498176,55
599621154662184832,57
599621154669871616,57
599621154677558272,57
599621154685245056,62
599621154692931712,67
599621154700618368,67
599621154708305152,67
599621154715991808,69
599621154723678464,69
599621154731365248,69
599621154739051904,73
599621154746738688,76
599621154754425344,73
599621154762112000,73
599621154769798784,73
599621154777485440,76
599621154785172096,76
599621154792858880,76
599621154800545536,73
599621154808232320,73
599621154815918976,76
599621154823605632,78
599621154831292416,78
599621154838979072,78
599621154846665728,78
599621154854352512,78
599621154862039168,73
599621154869725952,71
599621154877412608,76
599621154885099264,76
599621154892786048,73
599621154900472704,76
599621154908159360,78
599621154915846144,76
599621154923532800,73
599621154931219584,76
599621154938906240,78
599621154946592896,71
599621154954279680,76
599621154961966336,97
599621154969652992,110
599621154977339776,106
599621154985026432,106
599621154992713216,104
599621155000399920,87
599621155008086656,76
599621155015773440,76
599621155023460224,78
599621155031147008,73
599621155038833792,73
599621155046520576,76
599621155054207360,76
599621155061894016,71
599621155069580800,73
599621155077267584,73
599621155084954368,46
599621155092641152,-25
599621155100327936,-71
599621155108014720,60
599621155115701504,362
599621155123388288,547
599621155131075072,369
599621155138761856,32
599621155146448640,-92
599621155154135296,-41
599621155161822080,-18
599621155169508864,25
599621155177195648,104
599621155184882432,104
599621155192569216,71
599621155200256000,87
599621155207942784,99
599621155215629568,90
599621155223316352,92
599621155231003136,99
599621155238689920,99
599621155246376576,104
599621155254063360,106
599621155261750144,110
599621155269436928,113
599621155277123712,117
599621155284810496,122
599621155292497280,127
599621155300184064,136
599621155307870848,140
599621155315557632,145
599621155323244416,154
599621155330931200,161
599621155338617856,168
599621155346304640,168
599621155353991424,171
599621155361678208,171
599621155369364992,161
599621155377051776,143
599621155384738560,124
599621155392425344,97
599621155400112128,69
599621155407798912,55
599621155415485696,43
599621155423172480,32
599621155430859264,32
599621155438545920,32
599621155446232704,27
599621155453919488,30
599621155461606272,39
599621155469293056,41
599621155476979840,39
599621155484666624,41
599621155492353408,46
599621155500040192,46
599621155507726976,48
599621155515413760,53
599621155523100544,50
599621155530787200,50
599621155538473984,55
599621155546160768,55
599621155553847552,57
599621155561534390,60
599621155569220992,60
599621155576907648,62
599621155584594304,64
599621155592280832,64
599621155599967488,64
599621155607654144,64
599621155615340800,67
599621155623027456,69
599621155630714112,67
599621155638400640,64
599621155646087296,64
599621155653773952,67
599621155661460608,67
599621155669147264,67
599621155676833920,67
599621155684520448,67
599621155692207104,67
599621155699893760,69
599621155707580416,71
599621155715267072,71
599621155722953728,71
599621155730640256,73
599621155738326912,71
599621155746013568,71
599621155753700224,71
599621155761386880,73
599621155769073536,73
599621155776760064,73
599621155784446720,73
599621155792133376,73
599621155799820032,76
599621155807506688,78
599621155815193344,76
599621155822879872,71
599621155830566528,73
599621155838253184,92
599621155845939840,106
599621155853626496,106
599621155861313152,104
599621155868999680,104
599621155876686336,87
599621155884372992,73
599621155892059648,71
599621155899746304,73
599621155907432832,73
599621155915119488,73
599621155922806144,73
599621155930492800,73
599621155938179456,76
599621155945866112,78
599621155953552640,76
599621155961239296,62
599621155968925952,9
599621155976612608,-60
599621155984299264,-2
599621155991985920,249
599621155999672448,499
599621156007359104,448
599621156015045760,131
599621156022732416,-76
599621156030419072,-50
599621156038105728,-6
599621156045792256,16
599621156053478912,87
599621156061165568,115
599621156068852224,80
599621156076538880,85
599621156084225536,104
599621156091912064,94
599621156099598720,92
599621156107285376,104
599621156114972032,101
599621156122658682,97
599621156130345344,106
599621156138032000,113
599621156145718784,110
599621156153405440,113
599621156161092096,120
599621156168778880,124
599621156176465536,127
599621156184152320,134
599621156191838976,140
599621156199525632,150
599621156207212416,152
599621156214899072,154
599621156222585728,161
599621156230272512,164
599621156237959168,161
599621156245645952,159
599621156253332608,147
599621156261019264,129
599621156268706048,106
599621156276392704,85
599621156284079360,64
599621156291766144,48
599621156299452800,41
599621156307139584,39
599621156314826240,36
599621156322512896,36
599621156330199680,36
599621156337886336,39
599621156345572992,46
599621156353259776,46
599621156360946432,46
599621156368633216,50
599621156376319872,53
599621156384006528,46
599621156391693312,46
599621156399379968,50
599621156407066624,53
599621156414753408,53
599621156422440064,55
599621156430126848,60
599621156437813504,60
599621156445500160,60
599621156453186944,60
599621156460873600,62
599621156468560256,64
599621156476247040,67
599621156483933696,67
599621156491620480,69
599621156499307136,69
599621156506993792,69
599621156514680576,67
599621156522367232,69
599621156530053888,64
599621156537740672,62
599621156545427328,71
599621156553114112,76
599621156560800768,71
599621156568487424,71
599621156576174208,76
599621156583860864,76
599621156591547520,76
599621156599234304,76
599621156606920960,76
599621156614607744,76
599621156622294400,78
599621156629981056,80
599621156637667840,78
599621156645354496,76
599621156653041152,80
599621156660727936,80
599621156668414592,78
599621156676101376,83
599621156683788061,85
599621156691474688,80
599621156699161344,78
599621156706848128,83
599621156714534784,83
599621156722221440,80
599621156729908224,83
599621156737594880,83
599621156745281664,78
599621156752968320,78
599621156760654976,83
599621156768341760,83
599621156776028416,76
599621156783715072,73
599621156791401856,85
599621156799088512,104
599621156806775296,108
599621156814461952,106
599621156822148608,106
599621156829835392,99
599621156837522048,87
599621156845208704,76
599621156852895488,71
599621156860582144,76
599621156868268928,80
599621156875955584,73
599621156883642240,73
599621156891329024,73
599621156899015680,76
599621156906702336,78
599621156914389120,69
599621156922075776,25
599621156929762560,-48
599621156937449216,-36
599621156945135872,168
599621156952822656,450
599621156960509312,501
599621156968195968,233
599621156975882752,-34
599621156983569408,-62
599621156991256192,-9
599621156998942848,6
599621157006629504,62
599621157014316288,106
599621157022002944,83
599621157029689600,71
599621157037376384,92
599621157045063040,94
599621157052749824,90
599621157060436480,94
599621157068123136,99
599621157075809920,97
599621157083496576,99
599621157091183232,104
599621157098870016,108
599621157106556672,108
599621157114243456,110
599621157121930112,120
599621157129616768,124
599621157137303552,129
599621157144990208,136
599621157152676864,140
599621157160363648,147
599621157168050304,154
599621157175737088,157
599621157183423744,159
599621157191110400,161
599621157198797184,159
599621157206483840,150
599621157214170496,138
599621157221857280,117
599621157229543936,92
599621157237230720,73
599621157244917440,60
599621157252604160,46
599621157260290816,36
599621157267977600,34
599621157275664256,36
599621157283350912,39
599621157291037696,39
599621157298724352,39
599621157306411136,41
599621157314097792,46
599621157321784448,43
599621157329471232,41
599621157337157888,48
599621157344844544,50
599621157352531328,48
599621157360217984,48
599621157367904768,50
599621157375591424,53
599621157383278080,53
599621157390964864,50
599621157398651520,48
599621157406338176,50
599621157414024960,53
599621157421711616,55
599621157429398400,57
599621157437085056,55
599621157444771712,55
599621157452458496,62
599621157460145152,60
599621157467831808,57
599621157475518592,57
599621157483205248,60
599621157490892032,60
599621157498578688,60
599621157506265344,60
599621157513952128,57
599621157521638784,60
599621157529325440,62
599621157537012224,62
599621157544698880,62
599621157552385664,64
599621157560072320,62
599621157567758976,60
599621157575445760,64
599621157583132416,67
599621157590819072,62
599621157598505856,62
599621157606192512,64
599621157613879296,64
599621157621565952,64
599621157629252608,64
599621157636939392,67
599621157644626048,67
599621157652312704,69
599621157659999488,64
599621157667686144,64
599621157675372928,67
599621157683059584,67
599621157690746240,67
599621157698433024,67
599621157706119680,67
599621157713806336,67
599621157721493120,69
599621157729179776,71
599621157736866560,69
599621157744553216,69
599621157752239872,69
599621157759926656,69
599621157767613312,69
599621157775299968,71
599621157782986752,71
599621157790673408,69
599621157798360192,69
599621157806046819,71
599621157813733504,71
599621157821420160,69
599621157829106944,69
599621157836793600,71
599621157844480256,71
599621157852167040,69
599621157859853696,64
599621157867540480,60
599621157875227136,67
599621157882913792,83
599621157890600576,92
599621157898287232,87
599621157905973888,87
599621157913660672,83
599621157921347328,71
599621157929034112,64
599621157936720768,57
599621157944407424,55
599621157952094208,55
599621157959780864,57
599621157967467520,60
599621157975154304,60
599621157982840960,60
599621157990527744,60
599621157998214400,55
599621158005901056,18
599621158013587840,-57
599621158021274496,-73
599621158028961152,108
599621158036647936,418
599621158044334592,543
599621158052021376,305
599621158059708032,-16
599621158067394688,-92
599621158075081472,-39
599621158082768128,-23
599621158090454784,27
599621158098141568,85
599621158105828224,69
599621158113515008,50
599621158121201664,71
599621158128888320,73
599621158136575104,64
599621158144261760,71
599621158151948416,76
599621158159635200,73
599621158167321856,78
599621158175008640,83
599621158182695296,87
599621158190381952,87
599621158198068736,92
599621158205755392,97
599621158213442048,101
599621158221128832,106
599621158228815488,110
599621158236502272,117
599621158244188928,124
599621158251875584,131
599621158259562368,136
599621158267249024,140
599621158274935680,143
599621158282622464,143
599621158290309120,136
599621158297995904,129
599621158305682560,113
599621158313369216,90
599621158321056000,67
599621158328742656,50
599621158336429312,34
599621158344116096,25
599621158351802752,20
599621158359489536,20
599621158367176198,18
599621158374863360,18
599621158382550528,23
599621158390237568,23
599621158397924736,23
599621158405611904,23
599621158413298944,27
599621158420986112,27
599621158428673152,25
599621158436360320,27
599621158444047488,27
599621158451734528,25
599621158459421696,16
599621158467108864,6
599621158474795904,6
599621158482483072,18
599621158490170240,30
599621158497857280,39
599621158505544448,43
599621158513231616,43
599621158520918656,41
599621158528605824,43
599621158536292864,46
599621158543980032,46
599621158551667200,43
599621158559354240,48
599621158567041408,48
599621158574728576,46
599621158582415616,46
599621158590102784,48
599621158597789952,50
599621158605476992,50
599621158613164160,48
599621158620851200,48
599621158628538368,48
599621158636225536,46
599621158643912576,48
599621158651599744,50
599621158659286912,48
599621158666973952,48
599621158674661120,48
599621158682348288,48
599621158690035328,50
599621158697722496,53
599621158705409664,53
599621158713096704,53
599621158720783872,50
599621158728470912,50
599621158736158080,53
599621158743845248,53
599621158751532288,53
599621158759219456,53
599621158766906624,53
599621158774593664,53
599621158782280832,55
599621158789968000,53
599621158797655040,53
599621158805342208,53
599621158813029248,53
599621158820716416,55
599621158828403584,53
599621158836090624,53
599621158843777792,55
599621158851464960,55
599621158859152000,53
599621158866839168,55
599621158874526336,55
599621158882213376,55
599621158889900544,57
599621158897587712,55
599621158905274752,53
599621158912961920,50
599621158920648960,46
599621158928336099,48
599621158936022784,67
599621158943709440,80
599621158951396224,78
599621158959082880,80
599621158966769536,78
599621158974456320,71
599621158982142976,60
599621158989829760,48
599621158997516416,41
599621159005203072,46
599621159012889856,48
599621159020576512,46
599621159028263168,43
599621159035949952,48
599621159043636608,48
599621159051323392,48
599621159059010048,32
599621159066696704,-36
599621159074383488,-110
599621159082070144,-27
599621159089756800,275
599621159097443584,570
599621159105130240,524
599621159112817024,157
599621159120503680,-99
599621159128190336,-85
599621159135877120,-41
599621159143563776,-20
599621159151250432,48
599621159158937216,69
599621159166623872,36
599621159174310656,41
599621159181997312,60
599621159189683968,53
599621159197370752,53
599621159205057408,60
599621159212744064,62
599621159220430848,62
599621159228117504,67
599621159235804288,69
599621159243490944,71
599621159251177600,76
599621159258864384,83
599621159266551040,85
599621159274237696,90
599621159281924480,99
599621159289611136,106
599621159297297920,110
599621159304984576,120
599621159312671232,127
599621159320358016,134
599621159328044672,136
599621159335731328,136
599621159343418112,136
599621159351104768,131
599621159358791552,120
599621159366478208,99
599621159374164864,71
599621159381851648,50
599621159389538304,34
599621159397224960,20
599621159404911744,9
599621159412598400,2
599621159420285184,0
599621159427971840,2
599621159435658496,4
599621159443345280,4
599621159451031936,6
599621159458718592,11
599621159466405376,16
599621159474092032,16
599621159481778816,16
599621159489465478,20
599621159497152384,23
599621159504839296,20
599621159512526208,20
599621159520213120,25
599621159527900032,27
599621159535586944,27
599621159543273856,27
599621159550960768,30
599621159558647680,30
599621159566334592,27
599621159574021504,27
599621159581708416,30
599621159589395328,32
599621159597082240,32
599621159604769152,32
599621159612456064,34
599621159620142976,34
599621159627829888,34
599621159635516800,36
599621159643203712,36
599621159650890624,34
599621159658577536,36
599621159666264448,39
599621159673951360,36
599621159681638272,36
599621159689325184,36
599621159697012096,39
599621159704699008,36
599621159712385920,34
599621159720072832,36
599621159727759744,39
599621159735446656,36
599621159743133568,36
599621159750820480,39
599621159758507392,39
599621159766194304,39
599621159773881216,39
599621159781568128,39
599621159789255040,39
599621159796941952,41
599621159804628864,39
599621159812315776,41
599621159820002688,41
599621159827689600,41
599621159835376512,41
599621159843063424,41
599621159850750336,43
599621159858437248,46
599621159866124160,43
599621159873811072,41
599621159881497984,43
599621159889184896,46
599621159896871808,43
599621159904558720,43
599621159912245632,41
599621159919932544,39
599621159927619456,39
599621159935306368,41
599621159942993280,39
599621159950680192,32
599621159958367104,34
599621159966054016,53
599621159973740928,69
599621159981427840,71
599621159989114752,69
599621159996801664,71
599621160004488576,64
599621160012175488,50
599621160019862400,36
599621160027549312,34
599621160035236224,41
599621160042923136,41
599621160050610118,39
599621160058297088,39
599621160065984000,41
599621160073670912,43
599621160081357824,39
599621160089044736,16
599621160096731648,-64
599621160104418560,-131
599621160112105472,-9
599621160119792384,330
599621160127479296,621
599621160135166208,547
599621160142853120,147
599621160150540032,-127
599621160158226944,-101
599621160165913856,-41
599621160173600768,-27
599621160181287680,30
599621160188974592,48
599621160196661504,18
599621160204348416,25
599621160212035328,43
599621160219722240,39
599621160227409152,39
599621160235096064,46
599621160242782976,48
599621160250469888,50
599621160258156800,55
599621160265843712,57
599621160273530624,62
599621160281217536,67
599621160288904448,71
599621160296591360,78
599621160304278272,85
599621160311965184,92
599621160319652096,99
599621160327339008,108
599621160335025920,117
599621160342712832,124
599621160350399744,131
599621160358086656,136
599621160365773568,138
599621160373460480,138
599621160381147392,131
599621160388834304,117
599621160396521216,97
599621160404208128,69
599621160411895040,43
599621160419581952,25
599621160427268864,9
599621160434955776,0
599621160442642688,-4
599621160450329600,-6
599621160458016512,-6
599621160465703424,-2
599621160473390336,0
599621160481077248,2
599621160488764160,4
599621160496451072,6
599621160504137984,9
599621160511824896,13
599621160519511808,13
599621160527198720,13
599621160534885632,18
599621160542572544,20
599621160550259456,23
599621160557946368,23
599621160565633280,23
599621160573320192,25
599621160581007104,27
599621160588694016,30
599621160596380928,30
599621160604067840,32
599621160611754754,32
599621160619441408,32
599621160627128064,34
599621160634814848,36
599621160642501504,34
599621160650188160,36
599621160657874944,36
599621160665561600,36
599621160673248384,34
599621160680935040,32
599621160688621696,34
599621160696308480,34
599621160703995136,32
599621160711681792,34
599621160719368576,36
599621160727055232,34
599621160734742016,34
599621160742428672,36
599621160750115328,36
599621160757802112,34
599621160765488768,34
599621160773175424,36
599621160780862208,36
599621160788548864,39
599621160796235648,39
599621160803922304,36
599621160811608960,39
599621160819295744,41
599621160826982400,41
599621160834669056,39
599621160842355840,41
599621160850042496,41
599621160857729280,39
599621160865415936,41
599621160873102592,43
599621160880789376,41
599621160888476032,41
599621160896162688,43
599621160903849472,41
599621160911536128,39
599621160919222912,41
599621160926909568,36
599621160934596224,30
599621160942283008,32
599621160949969664,50
599621160957656320,67
599621160965343104,69
599621160973029760,69
599621160980716544,69
599621160988403200,60
599621160996089856,43
599621161003776640,34
599621161011463296,32
599621161019149952,36
599621161026836736,39
599621161034523392,39
599621161042210176,39
599621161049896832,39
599621161057583488,39
599621161065270272,34
599621161072956928,-4
599621161080643584,-94
599621161088330368,-122
599621161096017024,78
599621161103703808,448
599621161111390464,661
599621161119077120,455
599621161126763904,25
599621161134450560,-161
599621161142137216,-92
599621161149824000,-46
599621161157510656,-13
599621161165197440,46
599621161172884133,46
599621161180570752,20
599621161188257408,34
599621161195944192,48
599621161203630848,41
599621161211317504,41
599621161219004288,46
599621161226690944,48
599621161234377728,50
599621161242064384,57
599621161249751040,62
599621161257437824,67
599621161265124480,71
599621161272811136,73
599621161280497920,80
599621161288184576,90
599621161295871360,99
599621161303558016,104
599621161311244672,115
599621161318931456,127
599621161326618112,136
599621161334304768,145
599621161341991552,145
599621161349678208,145
599621161357364992,143
599621161365051648,134
599621161372738304,115
599621161380425088,85
599621161388111744,55
599621161395798400,30
599621161403485184,13
599621161411171840,2
599621161418858624,-6
599621161426545280,-13
599621161434231936,-16
599621161441918720,-13
599621161449605376,-9
599621161457292032,-6
599621161464978816,-6
599621161472665472,-2
599621161480352256,2
599621161488038912,2
599621161495725568,2
599621161503412352,6
599621161511099008,11
599621161518785664,11
599621161526472448,13
599621161534159104,16
599621161541845888,16
599621161549532544,20
599621161557219200,23
599621161564905984,23
599621161572592640,25
599621161580279296,27
599621161587966080,25
599621161595652736,25
599621161603339520,30
599621161611026176,32
599621161618712832,30
599621161626399616,30
599621161634086272,32
599621161641772928,32
599621161649459712,32
599621161657146368,34
599621161664833152,32
599621161672519808,32
599621161680206464,34
599621161687893248,34
599621161695579904,34
599621161703266560,36
599621161710953344,36
599621161718640000,36
599621161726326784,34
599621161734013512,36
599621161741700224,39
599621161749386880,41
599621161757073664,39
599621161764760320,36
599621161772446976,36
599621161780133760,41
599621161787820416,39
599621161795507200,34
599621161803193856,39
599621161810880512,41
599621161818567296,36
599621161826253952,34
599621161833940608,48
599621161841627392,69
599621161849314048,71
599621161857000832,67
599621161864687488,67
599621161872374144,62
599621161880060928,48
599621161887747584,39
599621161895434240,36
599621161903121024,36
599621161910807680,39
599621161918494464,36
599621161926181120,39
599621161933867776,39
599621161941554560,36
599621161949241216,34
599621161956927872,30
599621161964614656,-18
599621161972301312,-110
599621161979988096,-97
599621161987674752,150
599621161995361408,487
599621162003048192,561
599621162010734848,238
599621162018421504,-113
599621162026108288,-150
599621162033794944,-80
599621162041481728,-64
599621162049168384,16
599621162056855040,83
599621162064541824,53
599621162072228480,39
599621162079915136,62
599621162087601920,62
599621162095288576,55
599621162102975360,67
599621162110662016,71
599621162118348672,67
599621162126035456,71
599621162133722112,76
599621162141408768,78
599621162149095552,83
599621162156782208,90
599621162164468992,97
599621162172155648,101
599621162179842304,108
599621162187529088,117
599621162195215744,127
599621162202902400,134
599621162210589184,145
599621162218275840,157
599621162225962624,161
599621162233649280,159
599621162241335936,157
599621162249022720,150
599621162256709376,136
599621162264396032,108
599621162272082816,73
599621162279769472,43
599621162287456256,23
599621162295142895,4
599621162302829312,-4
599621162310515712,-9
599621162318202112,-11
599621162325888640,-9
599621162333575040,-2
599621162341261440,-2
599621162348947840,-2
599621162356634240,2
599621162364320768,4
599621162372007168,6
599621162379693568,6
599621162387379968,9
599621162395066368,9
599621162402752896,9
599621162410439296,13
599621162418125696,16
599621162425812096,20
599621162433498496,20
599621162441185024,18
599621162448871424,18
599621162456557824,20
599621162464244224,23
599621162471930624,25
599621162479617152,27
599621162487303552,27
599621162494989952,30
599621162502676352,30
599621162510362752,30
599621162518049152,30
599621162525735680,32
599621162533422080,32
599621162541108480,32
599621162548794880,34
599621162556481280,32
599621162564167808,32
599621162571854208,34
599621162579540608,36
599621162587227008,36
599621162594913408,34
599621162602599936,36
599621162610286336,39
599621162617972736,39
599621162625659136,36
599621162633345536,36
599621162641032064,36
599621162648718464,34
599621162656404864,39
599621162664091264,55
599621162671777664,69
599621162679464192,67
599621162687150592,67
599621162694836992,64
599621162702523392,50
599621162710209792,39
599621162717896320,36
599621162725582720,36
599621162733269120,36
599621162740955520,39
599621162748641920,39
599621162756328448,36
599621162764014848,39
599621162771701248,41
599621162779387648,39
599621162787074048,13
599621162794760576,-62
599621162802446976,-115
599621162810133376,20
599621162817819776,335
599621162825506176,538
599621162833192704,358
599621162840879104,-11
599621162848565504,-150
599621162856251930,-87
599621162863938688,-64
599621162871625472,-18
599621162879312256,71
599621162886999040,73
599621162894685824,36
599621162902372608,55
599621162910059392,69
599621162917746048,57
599621162925432832,57
599621162933119616,67
599621162940806400,67
599621162948493184,64
599621162956179968,64
599621162963866752,69
599621162971553536,76
599621162979240320,83
599621162986927104,85
599621162994613888,90
599621163002300672,99
599621163009987328,108
599621163017674112,113
599621163025360896,122
599621163033047680,134
599621163040734464,143
599621163048421248,147
599621163056108032,150
599621163063794816,152
599621163071481600,145
599621163079168384,131
599621163086855168,106
599621163094541952,73
599621163102228608,46
599621163109915392,23
599621163117602176,6
599621163125288960,-4
599621163132975744,-11
599621163140662528,-13
599621163148349312,-11
599621163156036096,-4
599621163163722880,-2
599621163171409664,-2
599621163179096448,0
599621163186783232,4
599621163194469888,6
599621163202156672,9
599621163209843456,9
599621163217530240,11
599621163225217024,13
599621163232903808,13
599621163240590592,18
599621163248277376,20
599621163255964160,20
599621163263650944,20
599621163271337728,25
599621163279024512,25
599621163286711168,25
599621163294397952,30
599621163302084736,32
599621163309771520,32
599621163317458304,32
599621163325145088,32
599621163332831872,32
599621163340518656,32
599621163348205440,36
599621163355892224,39
599621163363579008,39
599621163371265792,34
599621163378952576,34
599621163386639232,39
599621163394326016,39
599621163402012800,36
599621163409699584,41
599621163417386396,41
599621163425073152,39
599621163432759936,36
599621163440446720,34
599621163448133504,34
599621163455820288,39
599621163463507072,55
599621163471193856,67
599621163478880512,62
599621163486567296,62
599621163494254080,60
599621163501940864,41
599621163509627648,30
599621163517314432,32
599621163525001216,32
599621163532688000,32
599621163540374784,34
599621163548061568,36
599621163555748352,34
599621163563435136,32
599621163571121792,34
599621163578808576,34
599621163586495360,0
599621163594182144,-78
599621163601868928,-106
599621163609555712,64
599621163617242496,374
599621163624929280,513
599621163632616064,281
599621163640302848,-50
599621163647989632,-134
599621163655676416,-73
599621163663363072,-53
599621163671049856,2
599621163678736640,73
599621163686423424,60
599621163694110208,39
599621163701796992,57
599621163709483776,64
599621163717170560,60
599621163724857344,64
599621163732544128,67
599621163740230912,64
599621163747917696,69
599621163755604352,73
599621163763291136,78
599621163770977920,83
599621163778664704,85
599621163786351488,87
599621163794038272,92
599621163801725056,101
599621163809411840,110
599621163817098624,120
599621163824785408,124
599621163832472192,134
599621163840158976,143
599621163847845632,145
599621163855532416,145
599621163863219200,147
599621163870905984,140
599621163878592768,122
599621163886279552,97
599621163893966336,69
599621163901653120,43
599621163909339904,25
599621163917026688,9
599621163924713472,-2
599621163932400256,-4
599621163940087040,-2
599621163947773696,-4
599621163955460480,-4
599621163963147264,0
599621163970834048,2
599621163978520862,2
599621163986207232,4
599621163993893632,6
599621164001580032,9
599621164009266560,13
599621164016952960,13
599621164024639360,11
599621164032325760,13
599621164040012160,16
599621164047698688,13
599621164055385088,18
599621164063071488,20
599621164070757888,18
599621164078444288,23
599621164086130816,25
599621164093817216,23
599621164101503616,25
599621164109190016,27
599621164116876416,27
599621164124562944,27
599621164132249344,27
599621164139935744,32
599621164147622144,34
599621164155308544,30
599621164162995072,32
599621164170681472,34
599621164178367872,34
599621164186054272,32
599621164193740672,34
599621164201427072,36
599621164209113600,39
599621164216800000,36
599621164224486400,32
599621164232172800,36
599621164239859200,39
599621164247545728,34
599621164255232128,34
599621164262918528,34
599621164270604928,36
599621164278291328,50
599621164285977856,67
599621164293664256,67
599621164301350656,64
599621164309037056,62
599621164316723456,50
599621164324409984,36
599621164332096384,30
599621164339782784,34
599621164347469184,39
599621164355155584,36
599621164362842112,34
599621164370528512,34
599621164378214912,36
599621164385901312,41
599621164393587712,41
599621164401274240,27
599621164408960640,-25
599621164416647040,-94
599621164424333440,-48
599621164432019840,201
599621164439706368,462
599621164447392768,427
599621164455079168,113
599621164462765568,-110
599621164470451968,-94
599621164478138496,-50
599621164485824896,-30
599621164493511296,46
599621164501197696,78
599621164508884096,41
599621164516570624,46
599621164524257024,67
599621164531943424,57
599621164539629893,55
599621164547317120,67
599621164555004288,67
599621164562691328,67
599621164570378496,69
599621164578065664,69
599621164585752704,71
599621164593439872,78
599621164601126912,80
599621164608814080,85
599621164616501248,92
599621164624188288,101
599621164631875456,104
599621164639562624,110
599621164647249664,122
599621164654936832,131
599621164662624000,134
599621164670311040,138
599621164677998208,140
599621164685685376,136
599621164693372416,122
599621164701059584,106
599621164708746624,85
599621164716433792,57
599621164724120960,34
599621164731808000,23
599621164739495168,9
599621164747182336,2
599621164754869376,4
599621164762556544,2
599621164770243712,2
599621164777930752,6
599621164785617920,11
599621164793304960,13
599621164800992128,16
599621164808679296,18
599621164816366336,18
599621164824053504,20
599621164831740672,23
599621164839427712,23
599621164847114880,25
599621164854802048,30
599621164862489088,27
599621164870176256,30
599621164877863424,32
599621164885550464,32
599621164893237632,32
599621164900924672,34
599621164908611840,36
599621164916299008,39
599621164923986048,36
599621164931673216,39
599621164939360384,41
599621164947047424,41
599621164954734592,39
599621164962421760,39
599621164970108800,39
599621164977795968,39
599621164985483008,41
599621164993170176,41
599621165000857344,41
599621165008544384,43
599621165016231552,43
599621165023918720,41
599621165031605760,41
599621165039292928,46
599621165046980096,46
599621165054667136,46
599621165062354304,46
599621165070041472,48
599621165077728512,50
599621165085415680,50
599621165093102720,48
599621165100789794,48
599621165108476416,50
599621165116163072,50
599621165123849856,50
599621165131536512,53
599621165139223168,53
599621165146909952,48
599621165154596608,50
599621165162283392,50
599621165169970048,50
599621165177656704,50
599621165185343488,48
599621165193030144,50
599621165200716800,55
599621165208403584,53
599621165216090240,53
599621165223777024,53
599621165231463680,50
599621165239150336,55
599621165246837120,57
599621165254523776,53
599621165262210432,55
599621165269897216,53
599621165277583872,50
599621165285270656,55
599621165292957312,69
599621165300643968,78
599621165308330752,80
599621165316017408,80
599621165323704064,76
599621165331390848,67
599621165339077504,57
599621165346764288,48
599621165354450944,48
599621165362137600,50
599621165369824384,50
599621165377511040,50
599621165385197696,50
599621165392884480,53
599621165400571136,53
599621165408257920,53
599621165415944576,36
599621165423631232,-27
599621165431318016,-92
599621165439004672,-9
599621165446691328,258
599621165454378112,489
599621165462064768,406
599621165469751552,85
599621165477438208,-101
599621165485124864,-71
599621165492811648,-36
599621165500498304,-13
599621165508184960,53
599621165515871744,73
599621165523558400,46
599621165531245184,50
599621165538931840,64
599621165546618496,57
599621165554305280,62
599621165561991936,69
599621165569678592,64
599621165577365376,67
599621165585052032,71
599621165592738816,73
599621165600425472,78
599621165608112128,85
599621165615798912,87
599621165623485568,87
599621165631172224,94
599621165638859008,101
599621165646545664,108
599621165654232448,113
599621165661919173,120
599621165669605888,127
599621165677292544,131
599621165684979328,134
599621165692665984,134
599621165700352640,134
599621165708039424,127
599621165715726080,113
599621165723412864,92
599621165731099520,69
599621165738786176,46
599621165746472960,30
599621165754159616,18
599621165761846272,11
599621165769533056,6
599621165777219712,6
599621165784906496,9
599621165792593152,11
599621165800279808,11
599621165807966592,16
599621165815653248,18
599621165823339904,18
599621165831026688,20
599621165838713344,23
599621165846400128,20
599621165854086784,23
599621165861773440,27
599621165869460224,25
599621165877146880,27
599621165884833536,32
599621165892520320,32
599621165900206976,32
599621165907893760,32
599621165915580416,34
599621165923267072,36
599621165930953856,36
599621165938640512,36
599621165946327168,39
599621165954013952,41
599621165961700608,36
599621165969387392,34
599621165977074048,36
599621165984760704,36
599621165992447488,34
599621166000134144,36
599621166007820800,39
599621166015507584,36
599621166023194240,34
599621166030881024,39
599621166038567680,39
599621166046254336,34
599621166053941120,36
599621166061627776,39
599621166069314432,39
599621166077001216,39
599621166084687872,41
599621166092374656,41
599621166100061312,39
599621166107747968,39
599621166115434752,39
599621166123121408,41
599621166130808064,41
599621166138494848,41
599621166146181504,41
599621166153868288,43
599621166161554944,41
599621166169241600,41
599621166176928384,43
599621166184615040,43
599621166192301696,43
599621166199988480,43
599621166207675136,43
599621166215361920,43
599621166223048552,43
599621166230735232,46
599621166238421888,46
599621166246108672,43
599621166253795328,46
599621166261481984,46
599621166269168768,46
599621166276855424,46
599621166284542208,41
599621166292228864,41
599621166299915520,46
599621166307602304,46
599621166315288960,43
599621166322975616,43
599621166330662400,46
599621166338349056,46
599621166346035840,41
599621166353722496,41
599621166361409152,50
599621166369095936,67
599621166376782592,71
599621166384469248,69
599621166392156032,71
599621166399842688,64
599621166407529472,55
599621166415216128,43
599621166422902784,34
599621166430589568,36
599621166438276224,43
599621166445962880,36
599621166453649664,34
599621166461336320,41
599621166469023104,41
599621166476709760,36
599621166484396416,34
599621166492083200,9
599621166499769856,-67
599621166507456512,-110
599621166515143296,30
599621166522829952,337
599621166530516736,517
599621166538203392,335
599621166545890048,2
599621166553576832,-117
599621166561263488,-67
599621166568950144,-46
599621166576636928,-9
599621166584323584,57
599621166592010368,57
599621166599697024,30
599621166607383680,41
599621166615070464,53
599621166622757120,48
599621166630443776,50
599621166638130560,57
599621166645817216,57
599621166653504000,57
599621166661190656,60
599621166668877312,64
599621166676564096,67
599621166684250752,69
599621166691937408,73
599621166699624192,83
599621166707310848,85
599621166714997632,92
599621166722684288,99
599621166730370944,106
599621166738057728,110
599621166745744384,117
599621166753431040,122
599621166761117824,124
599621166768804480,127
599621166776491264,122
599621166784177931,113
599621166791864576,99
599621166799551232,80
599621166807238016,55
599621166814924672,34
599621166822611328,20
599621166830298112,6
599621166837984768,-2
599621166845671552,-4
599621166853358208,-4
599621166861044864,-6
599621166868731648,-4
599621166876418304,0
599621166884104960,0
599621166891791744,2
599621166899478400,4
599621166907165184,6
599621166914851840,9
599621166922538496,9
599621166930225280,9
599621166937911936,13
599621166945598592,13
599621166953285376,16
599621166960972032,18
599621166968658816,20
599621166976345472,20
599621166984032128,18
599621166991718912,18
599621166999405568,20
599621167007092224,23
599621167014779008,23
599621167022465664,20
599621167030152448,23
599621167037839104,23
599621167045525760,25
599621167053212544,27
599621167060899200,27
599621167068585856,20
599621167076272640,23
599621167083959296,27
599621167091646080,27
599621167099332736,25
599621167107019392,25
599621167114706176,27
599621167122392832,25
599621167130079488,27
599621167137766272,30
599621167145452928,30
599621167153139712,30
599621167160826368,30
599621167168513024,27
599621167176199808,30
599621167183886464,30
599621167191573120,30
599621167199259904,30
599621167206946560,32
599621167214633344,30
599621167222320000,30
599621167230006656,30
599621167237693440,30
599621167245380096,32
599621167253066752,32
599621167260753536,30
599621167268440192,30
599621167276126976,32
599621167283813632,34
599621167291500288,32
599621167299187072,32
599621167306873728,32
599621167314560384,32
599621167322247168,34
599621167329933824,32
599621167337620608,32
599621167345307310,34
599621167352993920,34
599621167360680576,32
599621167368367360,34
599621167376054016,34
599621167383740672,34
599621167391427456,32
599621167399114112,30
599621167406800896,32
599621167414487552,34
599621167422174208,27
599621167429860992,23
599621167437547648,39
599621167445234304,57
599621167452921088,62
599621167460607744,57
599621167468294528,57
599621167475981184,48
599621167483667840,36
599621167491354624,23
599621167499041280,23
599621167506727936,27
599621167514414720,27
599621167522101376,25
599621167529788160,25
599621167537474816,27
599621167545161472,27
599621167552848256,27
599621167560534912,13
599621167568221568,-41
599621167575908352,-124
599621167583595008,-78
599621167591281792,201
599621167598968448,520
599621167606655104,526
599621167614341888,180
599621167622028544,-104
599621167629715200,-110
599621167637401984,-64
599621167645088640,-48
599621167652775424,16
599621167660462080,50
599621167668148736,18
599621167675835520,16
599621167683522176,36
599621167691208832,34
599621167698895616,32
599621167706582272,36
599621167714269056,41
599621167721955712,41
599621167729642368,46
599621167737329152,50
599621167745015808,50
599621167752702464,55
599621167760389248,60
599621167768075904,64
599621167775762688,69
599621167783449344,76
599621167791136000,83
599621167798822784,87
599621167806509440,94
599621167814196096,106
599621167821882880,113
599621167829569536,117
599621167837256320,117
599621167844942976,120
599621167852629632,115
599621167860316416,106
599621167868003072,87
599621167875689728,64
599621167883376512,39
599621167891063168,20
599621167898749952,6
599621167906436689,-4
599621167914123392,-9
599621167921810048,-13
599621167929496832,-13
599621167937183488,-11
599621167944870144,-9
599621167952556928,-6
599621167960243584,-6
599621167967930368,-6
599621167975617024,-4
599621167983303680,-2
599621167990990464,-4
599621167998677120,-4
599621168006363776,0
599621168014050560,0
599621168021737216,0
599621168029424000,0
599621168037110656,2
599621168044797312,6
599621168052484096,6
599621168060170752,4
599621168067857408,6
599621168075544192,9
599621168083230848,9
599621168090917632,9
599621168098604288,11
599621168106290944,11
599621168113977728,11
599621168121664384,11
599621168129351040,11
599621168137037824,11
599621168144724480,11
599621168152411264,11
599621168160097920,13
599621168167784576,11
599621168175471360,11
599621168183158016,11
599621168190844672,13
599621168198531456,13
599621168206218112,13
599621168213904896,11
599621168221591552,11
599621168229278208,13
599621168236964992,13
599621168244651648,13
599621168252338304,16
599621168260025088,16
599621168267711744,16
599621168275398528,16
599621168283085184,20
599621168290771840,18
599621168298458624,16
599621168306145280,16
599621168313831936,18
599621168321518720,18
599621168329205376,18
599621168336892160,20
599621168344578816,20
599621168352265472,20
599621168359952256,18
599621168367638912,23
599621168375325568,25
599621168383012352,20
599621168390699008,20
599621168398385792,23
599621168406072448,23
599621168413759104,20
599621168421445888,23
599621168429132544,25
599621168436819200,25
599621168444505984,23
599621168452192640,23
599621168459879424,23
599621168467566068,27
599621168475252736,27
599621168482939392,25
599621168490626176,23
599621168498312832,20
599621168505999488,13
599621168513686272,9
599621168521372928,13
599621168529059712,34
599621168536746368,50
599621168544433024,50
599621168552119808,48
599621168559806464,43
599621168567493120,34
599621168575179904,23
599621168582866560,16
599621168590553344,20
599621168598240000,20
599621168605926656,20
599621168613613440,20
599621168621300096,23
599621168628986752,25
599621168636673536,25
599621168644360192,18
599621168652046976,-25
599621168659733632,-117
599621168667420288,-134
599621168675107072,85
599621168682793728,459
599621168690480384,654
599621168698167168,422
599621168705853824,4
599621168713540608,-154
599621168721227264,-90
599621168728913920,-55
599621168736600704,-25
599621168744287360,27
599621168751974016,20
599621168759660800,2
599621168767347456,18
599621168775034240,25
599621168782720896,18
599621168790407552,25
599621168798094336,32
599621168805780992,30
599621168813467648,32
599621168821154432,36
599621168828841088,41
599621168836527872,46
599621168844214528,50
599621168851901184,55
599621168859587968,60
599621168867274624,67
599621168874961280,73
599621168882648064,80
599621168890334720,90
599621168898021504,97
599621168905708160,104
599621168913394816,110
599621168921081600,115
599621168928768256,117
599621168936454912,117
599621168944141696,110
599621168951828352,99
599621168959515136,76
599621168967201792,50
599621168974888448,27
599621168982575232,11
599621168990261888,-2
599621168997948544,-13
599621169005635328,-20
599621169013321984,-23
599621169021008768,-18
599621169028695451,-16
599621169036382080,-16
599621169044068736,-13
599621169051755520,-9
599621169059442176,-6
599621169067128832,-4
599621169074815616,-2
599621169082502272,2
599621169090189056,2
599621169097875712,2
599621169105562368,2
599621169113249152,4
599621169120935808,6
599621169128622464,9
599621169136309248,6
599621169143995904,9
599621169151682688,11
599621169159369344,11
599621169167056000,13
599621169174742784,16
599621169182429440,16
599621169190116096,16
599621169197802880,16
599621169205489536,16
599621169213176320,16
599621169220862976,18
599621169228549632,20
599621169236236416,18
599621169243923072,18
599621169251609728,20
599621169259296512,20
599621169266983168,18
599621169274669952,20
599621169282356608,20
599621169290043264,20
599621169297730048,20
599621169305416704,20
599621169313103360,23
599621169320790144,23
599621169328476800,23
599621169336163584,23
599621169343850240,23
599621169351536896,23
599621169359223680,25
599621169366910336,25
599621169374596992,25
599621169382283776,25
599621169389970432,27
599621169397657216,27
599621169405343872,27
599621169413030528,27
599621169420717312,27
599621169428403968,27
599621169436090624,27
599621169443777408,27
599621169451464064,27
599621169459150848,30
599621169466837504,30
599621169474524160,27
599621169482210944,30
599621169489897600,30
599621169497584256,30
599621169505271040,30
599621169512957696,27
599621169520644480,27
599621169528331136,27
599621169536017792,27
599621169543704576,27
599621169551391232,30
599621169559077888,30
599621169566764672,27
599621169574451328,23
599621169582138112,20
599621169589824830,34
599621169597511424,55
599621169605198080,62
599621169612884864,60
599621169620571520,57
599621169628258176,55
599621169635944960,39
599621169643631616,23
599621169651318400,25
599621169659005056,32
599621169666691712,30
599621169674378496,25
599621169682065152,25
599621169689751808,27
599621169697438592,27
599621169705125248,25
599621169712812032,2
599621169720498688,-80
599621169728185344,-159
599621169735872128,-48
599621169743558784,305
599621169751245440,665
599621169758932224,658
599621169766618880,244
599621169774305664,-108
599621169781992320,-120
599621169789678976,-60
599621169797365760,-50
599621169805052416,2
599621169812739072,27
599621169820425856,-2
599621169828112512,0
599621169835799296,20
599621169843485952,18
599621169851172608,16
599621169858859392,25
599621169866546048,27
599621169874232704,27
599621169881919488,34
599621169889606144,36
599621169897292928,41
599621169904979584,46
599621169912666240,50
599621169920353024,55
599621169928039680,62
599621169935726336,69
599621169943413120,76
599621169951099776,83
599621169958786560,92
599621169966473216,104
599621169974159872,110
599621169981846656,117
599621169989533312,120
599621169997219968,122
599621170004906752,117
599621170012593408,106
599621170020280192,85
599621170027966848,62
599621170035653504,36
599621170043340288,16
599621170051026944,-2
599621170058713600,-13
599621170066400384,-20
599621170074087040,-23
599621170081773824,-23
599621170089460480,-20
599621170097147136,-18
599621170104833920,-16
599621170112520576,-13
599621170120207232,-11
599621170127894016,-9
599621170135580672,-6
599621170143267456,-4
599621170150954209,-4
599621170158640896,-2
599621170166327552,0
599621170174014336,2
599621170181700992,4
599621170189387648,4
599621170197074432,6
599621170204761088,6
599621170212447872,9
599621170220134528,6
599621170227821184,9
599621170235507968,11
599621170243194624,11
599621170250881280,9
599621170258568064,9
599621170266254720,11
599621170273941504,13
599621170281628160,13
599621170289314816,13
599621170297001600,13
599621170304688256,13
599621170312374912,13
599621170320061696,16
599621170327748352,16
599621170335435136,13
599621170343121792,13
599621170350808448,16
599621170358495232,16
599621170366181888,16
599621170373868544,16
599621170381555328,16
599621170389241984,18
599621170396928768,20
599621170404615424,20
599621170412302080,18
599621170419988864,18
599621170427675520,18
599621170435362176,18
599621170443048960,20
599621170450735616,23
599621170458422400,20
599621170466109056,20
599621170473795712,23
599621170481482496,20
599621170489169152,23
599621170496855808,25
599621170504542592,23
599621170512229248,23
599621170519916032,23
599621170527602688,20
599621170535289344,20
599621170542976128,25
599621170550662784,25
599621170558349440,23
599621170566036224,23
599621170573722880,25
599621170581409664,23
599621170589096320,16
599621170596782976,18
599621170604469760,41
599621170612156416,57
599621170619843072,55
599621170627529856,53
599621170635216512,53
599621170642903296,41
599621170650589952,27
599621170658276608,18
599621170665963392,20
599621170673650048,23
599621170681336704,20
599621170689023488,23
599621170696710144,25
599621170704396928,25
599621170712083588,23
599621170719770240,18
599621170727456896,-16
599621170735143680,-110
599621170742830336,-145
599621170750516992,53
599621170758203776,420
599621170765890432,640
599621170773577216,439
599621170781263872,-2
599621170788950528,-198
599621170796637312,-127
599621170804323968,-80
599621170812010624,-41
599621170819697408,34
599621170827384064,41
599621170835070848,9
599621170842757504,23
599621170850444160,36
599621170858130944,30
599621170865817600,34
599621170873504256,41
599621170881191040,41
599621170888877696,43
599621170896564480,48
599621170904251136,53
599621170911937792,57
599621170919624576,62
599621170927311232,67
599621170934997888,76
599621170942684672,85
599621170950371328,90
599621170958058112,94
599621170965744768,106
599621170973431424,115
599621170981118208,124
599621170988804864,134
599621170996491520,138
599621171004178304,138
599621171011864960,136
599621171019551744,127
599621171027238400,106
599621171034925056,80
599621171042611840,50
599621171050298496,25
599621171057985152,4
599621171065671936,-9
599621171073358592,-20
599621171081045376,-27
599621171088732032,-27
599621171096418688,-25
599621171104105472,-25
599621171111792128,-23
599621171119478784,-18
599621171127165568,-13
599621171134852224,-11
599621171142539008,-11
599621171150225664,-9
599621171157912320,-6
599621171165599104,-4
599621171173285760,-4
599621171180972416,-2
599621171188659200,2
599621171196345856,4
599621171204032640,6
599621171211719296,6
599621171219405952,6
599621171227092736,11
599621171234779392,11
599621171242466048,11
599621171250152832,13
599621171257839488,16
599621171265526272,13
599621171273212967,11
599621171280899584,16
599621171288586240,18
599621171296273024,18
599621171303959680,16
599621171311646336,16
599621171319333120,16
599621171327019776,16
599621171334706560,16
599621171342393216,16
599621171350079872,16
599621171357766656,16
599621171365453312,16
599621171373139968,18
599621171380826752,16
599621171388513408,16
599621171396200192,18
599621171403886848,20
599621171411573504,20
599621171419260288,18
599621171426946944,18
599621171434633600,20
599621171442320384,20
599621171450007040,20
599621171457693824,23
599621171465380480,23
599621171473067136,23
599621171480753920,25
599621171488440576,27
599621171496127232,23
599621171503814016,18
599621171511500672,30
599621171519187456,48
599621171526874112,55
599621171534560768,48
599621171542247552,43
599621171549934208,43
599621171557620864,32
599621171565307648,20
599621171572994304,16
599621171580681088,18
599621171588367744,20
599621171596054400,18
599621171603741184,18
599621171611427840,23
599621171619114496,23
599621171626801280,25
599621171634487936,18
599621171642174720,-23
599621171649861376,-113
599621171657548032,-131
599621171665234816,80
599621171672921472,427
599621171680608128,570
599621171688294912,305
599621171695981568,-78
599621171703668352,-175
599621171711355008,-101
599621171719041664,-83
599621171726728448,-23
599621171734415104,60
599621171742101760,48
599621171749788544,20
599621171757475200,39
599621171765161984,48
599621171772848640,41
599621171780535296,43
599621171788222080,50
599621171795908736,55
599621171803595392,55
599621171811282176,60
599621171818968832,62
599621171826655616,64
599621171834342346,69
599621171842029056,76
599621171849715712,83
599621171857402496,90
599621171865089152,92
599621171872775808,99
599621171880462592,110
599621171888149248,122
599621171895836032,129
599621171903522688,134
599621171911209344,136
599621171918896128,136
599621171926582784,129
599621171934269440,117
599621171941956224,101
599621171949642880,71
599621171957329664,39
599621171965016320,18
599621171972702976,0
599621171980389760,-16
599621171988076416,-23
599621171995763072,-25
599621172003449856,-25
599621172011136512,-20
599621172018823296,-20
599621172026509952,-18
599621172034196608,-16
599621172041883392,-16
599621172049570048,-13
599621172057256704,-11
599621172064943488,-9
599621172072630144,-6
599621172080316928,-6
599621172088003584,-4
599621172095690240,0
599621172103377024,2
599621172111063680,2
599621172118750336,4
599621172126437120,6
599621172134123776,6
599621172141810560,9
599621172149497216,11
599621172157183872,11
599621172164870656,16
599621172172557312,16
599621172180243968,13
599621172187930752,16
599621172195617408,16
599621172203304192,16
599621172210990848,18
599621172218677504,20
599621172226364288,20
599621172234050944,18
599621172241737600,20
599621172249424384,23
599621172257111040,20
599621172264797824,20
599621172272484480,20
599621172280171136,20
599621172287857920,20
599621172295544576,20
599621172303231232,23
599621172310918016,25
599621172318604672,20
599621172326291456,23
599621172333978112,39
599621172341664768,55
599621172349351552,53
599621172357038208,50
599621172364724864,50
599621172372411648,41
599621172380098304,25
599621172387785088,16
599621172395471729,18
599621172403158400,23
599621172410845056,23
599621172418531840,20
599621172426218496,23
599621172433905152,25
599621172441591936,25
599621172449278592,25
599621172456965376,11
599621172464652032,-55
599621172472338688,-138
599621172480025472,-67
599621172487712128,224
599621172495398784,506
599621172503085568,455
599621172510772224,92
599621172518459008,-154
599621172526145664,-129
599621172533832320,-85
599621172541519104,-64
599621172549205760,23
599621172556892416,62
599621172564579200,23
599621172572265856,25
599621172579952640,48
599621172587639296,39
599621172595325952,36
599621172603012736,50
599621172610699392,50
599621172618386048,48
599621172626072832,55
599621172633759488,62
599621172641446272,62
599621172649132928,62
599621172656819584,71
599621172664506368,80
599621172672193024,85
599621172679879680,92
599621172687566464,97
599621172695253120,106
599621172702939904,115
599621172710626560,124
599621172718313216,129
599621172726000000,134
599621172733686656,136
599621172741373312,134
599621172749060096,124
599621172756746752,110
599621172764433536,85
599621172772120192,50
599621172779806848,20
599621172787493632,4
599621172795180288,-6
599621172802866944,-18
599621172810553728,-18
599621172818240384,-18
599621172825927168,-20
599621172833613824,-18
599621172841300480,-11
599621172848987264,-9
599621172856673920,-11
599621172864360576,-6
599621172872047360,-2
599621172879734016,-4
599621172887420800,-2
599621172895107456,2
599621172902794112,0
599621172910480896,2
599621172918167552,9
599621172925854208,9
599621172933540992,4
599621172941227648,6
599621172948914432,13
599621172956601108,11
599621172964287744,11
599621172971974400,16
599621172979661184,13
599621172987347840,13
599621172995034496,18
599621173002721280,20
599621173010407936,18
599621173018094720,18
599621173025781376,20
599621173033468032,20
599621173041154816,20
599621173048841472,18
599621173056528128,18
599621173064214912,20
599621173071901568,20
599621173079588352,18
599621173087275008,18
599621173094961664,16
599621173102648448,13
599621173110335104,16
599621173118021760,30
599621173125708544,48
599621173133395200,50
599621173141081984,48
599621173148768640,50
599621173156455296,41
599621173164142080,23
599621173171828736,16
599621173179515392,20
599621173187202176,23
599621173194888832,20
599621173202575616,23
599621173210262272,25
599621173217948928,20
599621173225635712,23
599621173233322368,27
599621173241009024,18
599621173248695808,-23
599621173256382464,-101
599621173264069248,-106
599621173271755904,94
599621173279442560,402
599621173287129344,496
599621173294816000,231
599621173302502656,-85
599621173310189440,-138
599621173317876096,-76
599621173325562880,-55
599621173333249536,0
599621173340936192,60
599621173348622976,41
599621173356309632,27
599621173363996288,43
599621173371683072,46
599621173379369728,41
599621173387056512,50
599621173394743168,50
599621173402429824,50
599621173410116608,57
599621173417803264,60
599621173425489920,60
599621173433176704,64
599621173440863360,69
599621173448550144,76
599621173456236800,80
599621173463923456,83
599621173471610240,92
599621173479296896,101
599621173486983552,108
599621173494670336,115
599621173502356992,124
599621173510043776,129
599621173517730487,129
599621173525417088,127
599621173533103744,122
599621173540790528,108
599621173548477184,85
599621173556163840,57
599621173563850624,30
599621173571537280,11
599621173579224064,-2
599621173586910720,-13
599621173594597376,-20
599621173602284160,-20
599621173609970816,-18
599621173617657472,-16
599621173625344256,-11
599621173633030912,-9
599621173640717696,-6
599621173648404352,-4
599621173656091008,-2
599621173663777792,0
599621173671464448,2
599621173679151104,2
599621173686837888,4
599621173694524544,6
599621173702211328,9
599621173709897984,9
599621173717584640,11
599621173725271424,11
599621173732958080,11
599621173740644736,16
599621173748331520,16
599621173756018176,16
599621173763704960,18
599621173771391616,20
599621173779078272,20
599621173786765056,20
599621173794451712,20
599621173802138368,25
599621173809825152,25
599621173817511808,23
599621173825198592,25
599621173832885248,27
599621173840571904,23
599621173848258688,25
599621173855945344,27
599621173863632000,27
599621173871318784,25
599621173879005440,27
599621173886692224,32
599621173894378880,32
599621173902065536,27
599621173909752320,27
599621173917438976,30
599621173925125632,27
599621173932812416,27
599621173940499072,41
599621173948185856,57
599621173955872512,62
599621173963559168,60
599621173971245952,57
599621173978932608,48
599621173986619264,32
599621173994306048,27
599621174001992704,27
599621174009679488,30
599621174017366144,32
599621174025052800,32
599621174032739584,32
599621174040426240,30
599621174048112896,30
599621174055799680,27
599621174063486336,25
599621174071173120,-4
599621174078859866,-83
599621174086546560,-108
599621174094233216,67
599621174101920000,369
599621174109606656,494
599621174117293312,268
599621174124980096,-48
599621174132666752,-131
599621174140353536,-71
599621174148040192,-50
599621174155726848,-2
599621174163413632,60
599621174171100288,46
599621174178786944,23
599621174186473728,41
599621174194160384,50
599621174201847168,39
599621174209533824,43
599621174217220480,53
599621174224907264,53
599621174232593920,53
599621174240280576,60
599621174247967360,62
599621174255654016,64
599621174263340800,69
599621174271027456,73
599621174278714112,78
599621174286400896,83
599621174294087552,92
599621174301774208,97
599621174309460992,104
599621174317147648,113
599621174324834432,117
599621174332521088,122
599621174340207744,127
599621174347894528,127
599621174355581184,122
599621174363267840,108
599621174370954624,92
599621174378641280,69
599621174386328064,43
599621174394014720,20
599621174401701376,6
599621174409388160,0
599621174417074816,-6
599621174424761472,-6
599621174432448256,-6
599621174440134912,-4
599621174447821696,-4
599621174455508352,0
599621174463195008,4
599621174470881792,6
599621174478568448,6
599621174486255104,11
599621174493941888,13
599621174501628544,11
599621174509315328,16
599621174517001984,16
599621174524688640,13
599621174532375424,18
599621174540062080,20
599621174547748736,16
599621174555435520,16
599621174563122176,23
599621174570808960,20
599621174578495616,20
599621174586182272,20
599621174593869056,23
599621174601555712,25
599621174609242368,25
599621174616929152,25
599621174624615808,27
599621174632302592,27
599621174639989245,27
599621174647675904,30
599621174655362560,30
599621174663049344,30
599621174670736000,30
599621174678422656,30
599621174686109440,25
599621174693796096,25
599621174701482880,30
599621174709169536,32
599621174716856192,30
599621174724542976,25
599621174732229632,32
599621174739916288,34
599621174747603072,30
599621174755289728,32
599621174762976512,36
599621174770663168,32
599621174778349824,32
599621174786036608,34
599621174793723264,34
599621174801409920,34
599621174809096704,34
599621174816783360,34
599621174824470144,36
599621174832156800,39
599621174839843456,36
599621174847530240,36
599621174855216896,41
599621174862903552,36
599621174870590336,34
599621174878276992,36
599621174885963776,41
599621174893650432,39
599621174901337088,36
599621174909023872,39
599621174916710528,39
599621174924397184,39
599621174932083968,39
599621174939770624,39
599621174947457408,39
599621174955144064,39
599621174962830720,41
599621174970517504,41
599621174978204160,41
599621174985890816,41
599621174993577600,41
599621175001264256,41
599621175008951040,39
599621175016637696,39
599621175024324352,43
599621175032011136,43
599621175039697792,41
599621175047384448,41
599621175055071232,32
599621175062757888,32
599621175070444672,50
599621175078131328,67
599621175085817984,69
599621175093504768,67
599621175101191424,57
599621175108878080,48
599621175116564864,41
599621175124251520,34
599621175131938304,32
599621175139624960,34
599621175147311616,36
599621175154998400,36
599621175162685056,36
599621175170371712,36
599621175178058496,39
599621175185745152,34
599621175193431936,6
599621175201118624,-69
599621175208805248,-108
599621175216491904,39
599621175224178688,346
599621175231865344,524
599621175239552000,337
599621175247238784,0
599621175254925440,-122
599621175262612224,-71
599621175270298880,-50
599621175277985536,-13
599621175285672320,50
599621175293358976,50
599621175301045632,27
599621175308732416,39
599621175316419072,46
599621175324105856,39
599621175331792512,43
599621175339479168,48
599621175347165952,50
599621175354852608,53
599621175362539264,55
599621175370226048,57
599621175377912704,57
599621175385599488,62
599621175393286144,67
599621175400972800,69
599621175408659584,73
599621175416346240,83
599621175424032896,87
599621175431719680,92
599621175439406336,99
599621175447093120,106
599621175454779776,108
599621175462466432,110
599621175470153216,113
599621175477839872,110
599621175485526528,106
599621175493213312,94
599621175500899968,78
599621175508586752,57
599621175516273408,39
599621175523960064,23
599621175531646848,11
599621175539333504,2
599621175547020160,-4
599621175554706944,-6
599621175562393600,-9
599621175570080384,-6
599621175577767040,-4
599621175585453696,-2
599621175593140480,0
599621175600827136,2
599621175608513792,4
599621175616200576,6
599621175623887232,6
599621175631574016,9
599621175639260672,11
599621175646947328,11
599621175654634112,13
599621175662320768,16
599621175670007424,16
599621175677694208,16
599621175685380864,16
599621175693067648,18
599621175700754304,20
599621175708440960,20
599621175716127744,23
599621175723814400,23
599621175731501056,20
599621175739187840,20
599621175746874496,23
599621175754561280,23
599621175762248007,23
599621175769934720,25
599621175777621376,25
599621175785308160,25
599621175792994816,23
599621175800681472,25
599621175808368256,25
599621175816054912,27
599621175823741696,27
599621175831428352,25
599621175839115008,25
599621175846801792,27
599621175854488448,25
599621175862175104,23
599621175869861888,25
599621175877548544,27
599621175885235328,25
599621175892921984,27
599621175900608640,27
599621175908295424,25
599621175915982080,25
599621175923668736,25
599621175931355520,30
599621175939042176,30
599621175946728960,27
599621175954415616,27
599621175962102272,27
599621175969789056,27
599621175977475712,30
599621175985162368,32
599621175992849152,30
599621176000535808,30
599621176008222592,30
599621176015909248,32
599621176023595904,30
599621176031282688,30
599621176038969344,32
599621176046656000,32
599621176054342784,30
599621176062029440,30
599621176069716224,30
599621176077402880,30
599621176085089536,30
599621176092776320,32
599621176100462976,30
599621176108149632,30
599621176115836416,32
599621176123523072,30
599621176131209856,30
599621176138896512,34
599621176146583168,32
599621176154269952,23
599621176161956608,23
599621176169643264,43
599621176177330048,57
599621176185016704,60
599621176192703488,55
599621176200390144,50
599621176208076800,46
599621176215763584,32
599621176223450240,20
599621176231136896,23
599621176238823680,27
599621176246510336,25
599621176254197120,27
599621176261883776,27
599621176269570432,27
599621176277257216,27
599621176284943872,27
599621176292630528,2
599621176300317312,-76
599621176308003968,-129
599621176315690752,4
599621176323377386,323
599621176331064064,554
599621176338750720,409
599621176346437504,36
599621176354124160,-136
599621176361810816,-87
599621176369497600,-60
599621176377184256,-32
599621176384871040,34
599621176392557696,41
599621176400244352,11
599621176407931136,23
599621176415617792,36
599621176423304448,27
599621176430991232,27
599621176438677888,36
599621176446364672,39
599621176454051328,39
599621176461737984,41
599621176469424768,43
599621176477111424,46
599621176484798080,50
599621176492484864,55
599621176500171520,62
599621176507858304,67
599621176515544960,73
599621176523231616,78
599621176530918400,83
599621176538605056,92
599621176546291712,99
599621176553978496,104
599621176561665152,108
599621176569351936,108
599621176577038592,104
599621176584725248,99
599621176592412032,92
599621176600098688,76
599621176607785344,50
599621176615472128,27
599621176623158784,11
599621176630845568,0
599621176638532224,-11
599621176646218880,-16
599621176653905664,-18
599621176661592320,-18
599621176669278976,-20
599621176676965760,-16
599621176684652416,-11
599621176692339200,-11
599621176700025856,-9
599621176707712512,-4
599621176715399296,-4
599621176723085952,-2
599621176730772608,0
599621176738459392,2
599621176746146048,2
599621176753832832,4
599621176761519488,4
599621176769206144,6
599621176776892928,9
599621176784579584,9
599621176792266240,9
599621176799953024,11
599621176807639680,13
599621176815326464,13
599621176823013120,16
599621176830699776,16
599621176838386560,16
599621176846073216,16
599621176853759872,16
599621176861446656,16
599621176869133312,16
599621176876820096,16
599621176884506765,20
599621176892193792,18
599621176899880832,18
599621176907567744,18
599621176915254784,18
599621176922941696,18
599621176930628736,18
599621176938315648,16
599621176946002688,18
599621176953689600,18
599621176961376640,18
599621176969063680,16
599621176976750592,18
599621176984437632,18
599621176992124544,18
599621176999811584,20
599621177007498496,20
599621177015185536,20
599621177022872448,20
599621177030559488,20
599621177038246400,20
599621177045933440,23
599621177053620480,23
599621177061307392,25
599621177068994432,23
599621177076681344,20
599621177084368384,20
599621177092055296,23
599621177099742336,20
599621177107429248,20
599621177115116288,23
599621177122803328,23
599621177130490240,23
599621177138177280,23
599621177145864192,23
599621177153551232,23
599621177161238144,23
599621177168925184,25
599621177176612096,25
599621177184299136,25
599621177191986048,25
599621177199673088,25
599621177207360128,23
599621177215047040,25
599621177222734080,25
599621177230420992,25
599621177238108032,20
599621177245794944,18
599621177253481984,25
599621177261168896,43
599621177268855936,55
599621177276542976,55
599621177284229888,53
599621177291916928,46
599621177299603840,36
599621177307290880,23
599621177314977792,18
599621177322664832,25
599621177330351744,25
599621177338038784,25
599621177345725824,23
599621177353412736,23
599621177361099776,25
599621177368786688,27
599621177376473728,18
599621177384160640,-36
599621177391847680,-127
599621177399534592,-110
599621177407221632,143
599621177414908544,499
599621177422595584,598
599621177430282624,295
599621177437969536,-67
599621177445656492,-138
599621177453343232,-73
599621177461030016,-53
599621177468716800,-9
599621177476403584,34
599621177484090368,16
599621177491777152,4
599621177499463936,23
599621177507150592,25
599621177514837376,18
599621177522524160,25
599621177530210944,30
599621177537897728,30
599621177545584512,32
599621177553271296,39
599621177560958080,39
599621177568644864,41
599621177576331648,48
599621177584018432,50
599621177591705216,53
599621177599391872,60
599621177607078656,67
599621177614765440,73
599621177622452224,80
599621177630139008,90
599621177637825792,97
599621177645512576,101
599621177653199360,106
599621177660886144,108
599621177668572928,106
599621177676259712,99
599621177683946496,87
599621177691633152,69
599621177699319936,41
599621177707006720,20
599621177714693504,4
599621177722380288,-9
599621177730067072,-20
599621177737753856,-23
599621177745440640,-23
599621177753127424,-23
599621177760814208,-20
599621177768500992,-20
599621177776187776,-18
599621177783874432,-16
599621177791561216,-11
599621177799248000,-9
599621177806934784,-6
599621177814621568,-4
599621177822308352,-2
599621177829995136,-2
599621177837681920,-2
599621177845368704,-2
599621177853055488,4
599621177860742272,6
599621177868429056,4
599621177876115712,4
599621177883802496,6
599621177891489280,9
599621177899176064,6
599621177906862848,6
599621177914549632,9
599621177922236416,9
599621177929923200,9
599621177937609984,6
599621177945296768,11
599621177952983552,11
599621177960670336,11
599621177968357120,11
599621177976043776,11
599621177983730560,11
599621177991417344,11
599621177999104128,11
599621178006790958,11
599621178014477696,11
599621178022164480,11
599621178029851264,13
599621178037538048,13
599621178045224832,11
599621178052911616,9
599621178060598400,11
599621178068285056,11
599621178075971840,9
599621178083658624,9
599621178091345408,9
599621178099032192,9
599621178106718976,9
599621178114405760,9
599621178122092544,9
599621178129779328,9
599621178137466112,9
599621178145152896,11
599621178152839680,11
599621178160526336,11
599621178168213120,11
599621178175899904,11
599621178183586688,11
599621178191273472,13
599621178198960256,13
599621178206647040,13
599621178214333824,13
599621178222020608,13
599621178229707392,11
599621178237394176,11
599621178245080960,16
599621178252767616,16
599621178260454400,13
599621178268141184,13
599621178275827968,16
599621178283514752,13
599621178291201536,13
599621178298888320,16
599621178306575104,16
599621178314261888,16
599621178321948672,11
599621178329635456,4
599621178337322240,16
599621178345008896,36
599621178352695680,46
599621178360382464,46
599621178368069248,41
599621178375756032,36
599621178383442816,25
599621178391129600,11
599621178398816384,9
599621178406503168,13
599621178414189952,13
599621178421876736,13
599621178429563520,13
599621178437250176,13
599621178444936960,13
599621178452623744,13
599621178460310528,-4
599621178467997312,-76
599621178475684096,-154
599621178483370880,-69
599621178491057664,251
599621178498744448,589
599621178506431232,591
599621178514118016,208
599621178521804800,-127
599621178529491456,-138
599621178537178240,-69
599621178544865024,-57
599621178552551808,-6
599621178560238592,23
599621178567925420,-4
599621178575612032,-4
599621178583298688,13
599621178590985472,11
599621178598672128,6
599621178606358784,16
599621178614045568,18
599621178621732224,16
599621178629419008,23
599621178637105664,30
599621178644792320,30
599621178652479104,32
599621178660165760,39
599621178667852416,46
599621178675539200,50
599621178683225856,57
599621178690912640,64
599621178698599296,73
599621178706285952,80
599621178713972736,90
599621178721659392,97
599621178729346048,106
599621178737032832,108
599621178744719488,108
599621178752406272,108
599621178760092928,101
599621178767779584,87
599621178775466368,64
599621178783153024,36
599621178790839680,13
599621178798526464,0
599621178806213120,-13
599621178813899904,-25
599621178821586560,-27
599621178829273216,-27
599621178836960000,-27
599621178844646656,-25
599621178852333312,-23
599621178860020096,-23
599621178867706752,-18
599621178875393536,-16
599621178883080192,-11
599621178890766848,-11
599621178898453632,-9
599621178906140288,-6
599621178913826944,-4
599621178921513728,-4
599621178929200384,-2
599621178936887168,2
599621178944573824,2
599621178952260480,2
599621178959947264,4
599621178967633920,6
599621178975320576,4
599621178983007360,6
599621178990694016,6
599621178998380800,9
599621179006067456,9
599621179013754112,9
599621179021440896,9
599621179029127552,9
599621179036814208,9
599621179044500992,11
599621179052187648,11
599621179059874432,11
599621179067561088,11
599621179075247744,13
599621179082934528,13
599621179090621184,11
599621179098307840,11
599621179105994624,9
599621179113681280,11
599621179121368064,11
599621179129054803,11
599621179136741504,11
599621179144428160,11
599621179152114944,11
599621179159801600,11
599621179167488256,13
599621179175175040,16
599621179182861696,16
599621179190548480,13
599621179198235136,16
599621179205921792,16
599621179213608576,13
599621179221295232,13
599621179228981888,13
599621179236668672,16
599621179244355328,16
599621179252042112,16
599621179259728768,18
599621179267415424,18
599621179275102208,18
599621179282788864,18
599621179290475520,18
599621179298162304,18
599621179305848960,18
599621179313535744,20
599621179321222400,23
599621179328909056,20
599621179336595840,23
599621179344282496,23
599621179351969152,23
599621179359655936,20
599621179367342592,23
599621179375029376,18
599621179382716032,11
599621179390402688,18
599621179398089472,36
599621179405776128,53
599621179413462784,55
599621179421149568,53
599621179428836224,48
599621179436523008,36
599621179444209664,23
599621179451896320,16
599621179459583104,20
599621179467269760,23
599621179474956416,20
599621179482643200,18
599621179490329856,20
599621179498016640,20
599621179505703296,20
599621179513389952,11
599621179521076736,-46
599621179528763392,-140
599621179536450048,-120
599621179544136832,150
599621179551823488,533
599621179559510272,688
599621179567196928,395
599621179574883584,-43
599621179582570368,-168
599621179590257024,-87
599621179597943680,-67
599621179605630464,-32
599621179613317120,18
599621179621003904,2
599621179628690560,-16
599621179636377216,4
599621179644064000,13
599621179651750656,6
599621179659437312,11
599621179667124096,18
599621179674810752,20
599621179682497536,23
599621179690184182,27
599621179697870848,30
599621179705557504,34
599621179713244288,41
599621179720930944,46
599621179728617600,50
599621179736304384,60
599621179743991040,67
599621179751677824,71
599621179759364480,80
599621179767051136,90
599621179774737920,99
599621179782424576,106
599621179790111232,110
599621179797798016,113
599621179805484672,115
599621179813171456,108
599621179820858112,94
599621179828544768,71
599621179836231552,46
599621179843918208,20
599621179851604864,0
599621179859291648,-13
599621179866978304,-25
599621179874665088,-32
599621179882351744,-34
599621179890038400,-34
599621179897725184,-32
599621179905411840,-30
599621179913098496,-27
599621179920785280,-23
599621179928471936,-20
599621179936158720,-18
599621179943845376,-16
599621179951532032,-13
599621179959218816,-11
599621179966905472,-11
599621179974592128,-9
599621179982278912,-6
599621179989965568,-4
599621179997652352,-4
599621180005339008,0
599621180013025664,2
599621180020712448,2
599621180028399104,2
599621180036085760,2
599621180043772544,4
599621180051459200,6
599621180059145984,6
599621180066832640,6
599621180074519296,6
599621180082206080,6
599621180089892736,6
599621180097579392,6
599621180105266176,6
599621180112952832,2
599621180120639616,2
599621180128326272,4
599621180136012928,4
599621180143699712,6
599621180151386368,6
599621180159073024,6
599621180166759808,6
599621180174446464,9
599621180182133248,6
599621180189819904,6
599621180197506560,6
599621180205193344,6
599621180212880000,6
599621180220566656,9
599621180228253440,11
599621180235940096,11
599621180243626880,11
599621180251313561,11
599621180259000192,11
599621180266686848,13
599621180274373632,11
599621180282060288,13
599621180289746944,16
599621180297433728,13
599621180305120384,11
599621180312807168,13
599621180320493824,13
599621180328180480,13
599621180335867264,11
599621180343553920,9
599621180351240576,9
599621180358927360,23
599621180366614016,43
599621180374300800,46
599621180381987456,43
599621180389674112,46
599621180397360896,36
599621180405047552,20
599621180412734208,11
599621180420420992,11
599621180428107648,13
599621180435794432,13
599621180443481088,11
599621180451167744,13
599621180458854528,13
599621180466541184,13
599621180474227840,13
599621180481914624,2
599621180489601280,-67
599621180497288064,-157
599621180504974720,-94
599621180512661376,212
599621180520348160,556
599621180528034816,587
599621180535721472,210
599621180543408256,-157
599621180551094912,-184
599621180558781696,-104
599621180566468352,-78
599621180574155008,-6
599621180581841792,46
599621180589528448,13
599621180597215104,6
599621180604901888,30
599621180612588544,27
599621180620275328,20
599621180627961984,32
599621180635648640,34
599621180643335424,34
599621180651022080,39
599621180658708736,46
599621180666395520,48
599621180674082176,53
599621180681768960,57
599621180689455616,64
599621180697142272,71
599621180704829056,76
599621180712515712,83
599621180720202368,92
599621180727889152,101
599621180735575808,113
599621180743262592,120
599621180750949248,124
599621180758635904,127
599621180766322688,129
599621180774009344,127
599621180781696000,115
599621180789382784,97
599621180797069440,69
599621180804756224,39
599621180812442940,11
599621180820129536,-6
599621180827816192,-20
599621180835502976,-32
599621180843189632,-36
599621180850876288,-36
599621180858563072,-34
599621180866249728,-34
599621180873936512,-32
599621180881623168,-27
599621180889309824,-23
599621180896996608,-23
599621180904683264,-23
599621180912369920,-16
599621180920056704,-13
599621180927743360,-13
599621180935430144,-9
599621180943116800,-6
599621180950803456,-9
599621180958490240,-6
599621180966176896,-2
599621180973863552,0
599621180981550336,0
599621180989236992,0
599621180996923776,2
599621181004610432,6
599621181012297088,4
599621181019983872,4
599621181027670528,4
599621181035357184,4
599621181043043968,4
599621181050730624,6
599621181058417408,9
599621181066104064,9
599621181073790720,9
599621181081477504,6
599621181089164160,6
599621181096850816,11
599621181104537600,11
599621181112224256,6
599621181119911040,4
599621181127597696,9
599621181135284352,9
599621181142971136,6
599621181150657792,6
599621181158344448,9
599621181166031232,9
599621181173717888,9
599621181181404672,9
599621181189091328,11
599621181196777984,11
599621181204464768,11
599621181212151424,13
599621181219838080,16
599621181227524864,11
599621181235211520,6
599621181242898304,20
599621181250584960,43
599621181258271616,46
599621181265958400,41
599621181273645056,41
599621181281331712,36
599621181289018496,25
599621181296705152,13
599621181304391936,9
599621181312078592,11
599621181319765248,11
599621181327452032,11
599621181335138688,13
599621181342825344,13
599621181350512128,16
599621181358198784,18
599621181365885568,11
599621181373572319,-30
599621181381259008,-117
599621181388945664,-138
599621181396632448,71
599621181404319104,420
599621181412005760,566
599621181419692544,300
599621181427379200,-87
599621181435065984,-187
599621181442752640,-110
599621181450439296,-92
599621181458126080,-32
599621181465812736,48
599621181473499392,32
599621181481186176,6
599621181488872832,32
599621181496559616,39
599621181504246272,25
599621181511932928,32
599621181519619712,41
599621181527306368,43
599621181534993024,46
599621181542679808,48
599621181550366464,50
599621181558053248,57
599621181565739904,62
599621181573426560,64
599621181581113344,71
599621181588800000,80
599621181596486656,87
599621181604173440,94
599621181611860096,104
599621181619546880,113
599621181627233536,117
599621181634920192,122
599621181642606976,127
599621181650293632,129
599621181657980288,127
599621181665667072,117
599621181673353728,99
599621181681040512,73
599621181688727168,43
599621181696413824,16
599621181704100608,-2
599621181711787264,-18
599621181719473920,-27
599621181727160704,-30
599621181734847360,-34
599621181742534144,-32
599621181750220800,-25
599621181757907456,-23
599621181765594240,-23
599621181773280896,-18
599621181780967552,-16
599621181788654336,-13
599621181796340992,-13
599621181804027776,-11
599621181811714432,-6
599621181819401088,-4
599621181827087872,-4
599621181834774528,-2
599621181842461184,-2
599621181850147968,0
599621181857834624,0
599621181865521408,2
599621181873208064,4
599621181880894720,6
599621181888581504,9
599621181896268160,9
599621181903954816,9
599621181911641600,9
599621181919328256,9
599621181927015040,11
599621181934701698,11
599621181942388352,11
599621181950075008,13
599621181957761792,16
599621181965448448,13
599621181973135104,11
599621181980821888,11
599621181988508544,11
599621181996195328,13
599621182003881984,13
599621182011568640,11
599621182019255424,13
599621182026942080,16
599621182034628736,16
599621182042315520,16
599621182050002176,13
599621182057688960,11
599621182065375616,23
599621182073062272,43
599621182080749056,48
599621182088435712,48
599621182096122368,46
599621182103809152,36
599621182111495808,25
599621182119182592,13
599621182126869248,11
599621182134555904,13
599621182142242688,13
599621182149929344,11
599621182157616000,13
599621182165302784,16
599621182172989440,16
599621182180676224,16
599621182188362880,11
599621182196049536,-34
599621182203736320,-122
599621182211422976,-117
599621182219109632,106
599621182226796416,436
599621182234483072,526
599621182242169856,231
599621182249856512,-108
599621182257543168,-157
599621182265229952,-92
599621182272916608,-76
599621182280603264,-11
599621182288290048,53
599621182295976704,30
599621182303663488,13
599621182311350144,36
599621182319036800,39
599621182326723584,30
599621182334410240,39
599621182342096896,46
599621182349783680,43
599621182357470336,46
599621182365157120,50
599621182372843776,55
599621182380530432,57
599621182388217216,62
599621182395903872,67
599621182403590528,73
599621182411277312,80
599621182418963968,87
599621182426650752,92
599621182434337408,104
599621182442024064,113
599621182449710848,117
599621182457397504,124
599621182465084160,127
599621182472770944,127
599621182480457600,122
599621182488144384,113
599621182495831081,92
599621182503517696,67
599621182511204352,36
599621182518891136,13
599621182526577792,-2
599621182534264448,-16
599621182541951232,-20
599621182549637888,-23
599621182557324672,-27
599621182565011328,-23
599621182572697984,-20
599621182580384768,-20
599621182588071424,-18
599621182595758080,-13
599621182603444864,-11
599621182611131520,-11
599621182618818304,-9
599621182626504960,-6
599621182634191616,-6
599621182641878400,-6
599621182649565056,-6
599621182657251712,0
599621182664938496,2
599621182672625152,2
599621182680311936,2
599621182687998592,4
599621182695685248,4
599621182703372032,6
599621182711058688,11
599621182718745344,11
599621182726432128,9
599621182734118784,9
599621182741805568,9
599621182749492224,11
599621182757178880,13
599621182764865664,13
599621182772552320,16
599621182780238976,16
599621182787925760,11
599621182795612416,16
599621182803299200,20
599621182810985856,18
599621182818672512,13
599621182826359296,18
599621182834045952,18
599621182841732608,13
599621182849419392,25
599621182857106048,43
599621182864792832,48
599621182872479488,46
599621182880166144,48
599621182887852928,39
599621182895539584,23
599621182903226240,13
599621182910913024,13
599621182918599680,18
599621182926286464,20
599621182933973120,16
599621182941659776,18
599621182949346560,23
599621182957033216,23
599621182964719872,20
599621182972406656,13
599621182980093312,-18
599621182987780096,-99
599621182995466752,-117
599621183003153408,73
599621183010840192,392
599621183018526848,510
599621183026213504,251
599621183033900288,-78
599621183041586944,-143
599621183049273728,-80
599621183056960460,-67
599621183064647168,-11
599621183072333824,57
599621183080020608,41
599621183087707264,18
599621183095393920,39
599621183103080704,46
599621183110767360,36
599621183118454144,39
599621183126140800,41
599621183133827456,41
599621183141514240,41
599621183149200896,46
599621183156887552,53
599621183164574336,55
599621183172260992,57
599621183179947776,62
599621183187634432,69
599621183195321088,76
599621183203007872,78
599621183210694528,90
599621183218381184,99
599621183226067968,106
599621183233754624,113
599621183241441408,117
599621183249128064,122
599621183256814720,120
599621183264501504,115
599621183272188160,106
599621183279874816,90
599621183287561600,62
599621183295248256,32
599621183302935040,13
599621183310621696,0
599621183318308352,-16
599621183325995136,-23
599621183333681792,-20
599621183341368448,-20
599621183349055232,-20
599621183356741888,-16
599621183364428672,-13
599621183372115328,-11
599621183379801984,-9
599621183387488768,-6
599621183395175424,-4
599621183402862080,-2
599621183410548864,-2
599621183418235520,0
599621183425922304,0
599621183433608960,2
599621183441295616,4
599621183448982400,4
599621183456669056,6
599621183464355712,9
599621183472042496,6
599621183479729152,6
599621183487415936,11
599621183495102592,13
599621183502789248,16
599621183510476032,16
599621183518162688,13
599621183525849344,13
599621183533536128,13
599621183541222784,18
599621183548909568,20
599621183556596224,18
599621183564282880,18
599621183571969664,20
599621183579656320,23
599621183587342976,20
599621183595029760,20
599621183602716416,20
599621183610403200,23
599621183618089839,25
599621183625776512,25
599621183633463168,23
599621183641149952,20
599621183648836608,20
599621183656523264,23
599621183664210048,20
599621183671896704,20
599621183679583488,25
599621183687270144,23
599621183694956800,18
599621183702643584,16
599621183710330240,23
599621183718016896,41
599621183725703680,55
599621183733390336,53
599621183741077120,50
599621183748763776,43
599621183756450432,32
599621183764137216,20
599621183771823872,16
599621183779510528,20
599621183787197312,23
599621183794883968,20
599621183802570752,20
599621183810257408,25
599621183817944064,25
599621183825630848,25
599621183833317504,27
599621183841004160,11
599621183848690944,-50
599621183856377600,-115
599621183864064384,-48
599621183871751040,208
599621183879437696,466
599621183887124480,420
599621183894811136,92
599621183902497792,-127
599621183910184576,-106
599621183917871232,-62
599621183925558016,-41
599621183933244672,30
599621183940931328,57
599621183948618112,27
599621183956304768,30
599621183963991424,46
599621183971678208,43
599621183979364864,41
599621183987051648,48
599621183994738304,48
599621184002424960,48
599621184010111744,53
599621184017798400,55
599621184025485056,57
599621184033171840,64
599621184040858496,64
599621184048545280,67
599621184056231936,78
599621184063918592,83
599621184071605376,85
599621184079292032,94
599621184086978688,101
599621184094665472,106
599621184102352128,110
599621184110038912,113
599621184117725568,117
599621184125412224,120
599621184133099008,110
599621184140785664,97
599621184148472320,80
599621184156159104,55
599621184163845760,27
599621184171532544,11
599621184179219218,0
599621184186905856,-6
599621184194592512,-11
599621184202279296,-16
599621184209965952,-16
599621184217652608,-13
599621184225339392,-11
599621184233026048,-9
599621184240712832,-6
599621184248399488,-4
599621184256086144,-2
599621184263772928,-2
599621184271459584,0
599621184279146240,4
599621184286833024,2
599621184294519680,6
599621184302206464,11
599621184309893120,11
599621184317579776,11
599621184325266560,13
599621184332953216,13
599621184340639872,13
599621184348326656,18
599621184356013312,20
599621184363700096,18
599621184371386752,16
599621184379073408,18
599621184386760192,20
599621184394446848,23
599621184402133504,20
599621184409820288,18
599621184417506944,23
599621184425193728,23
599621184432880384,23
599621184440567040,25
599621184448253824,25
599621184455940480,25
599621184463627136,23
599621184471313920,23
599621184479000576,25
599621184486687360,30
599621184494374016,27
599621184502060672,25
599621184509747456,27
599621184517434112,30
599621184525120768,27
599621184532807552,30
599621184540494208,30
599621184548180992,30
599621184555867648,30
599621184563554304,30
599621184571241088,30
599621184578927744,32
599621184586614400,34
599621184594301184,30
599621184601987840,30
599621184609674624,32
599621184617361280,32
599621184625047936,32
599621184632734720,34
599621184640421376,32
599621184648108032,32
599621184655794816,32
599621184663481472,32
599621184671168256,32
599621184678854912,32
599621184686541568,30
599621184694228352,32
599621184701915008,34
599621184709601664,30
599621184717288448,32
599621184724975104,34
599621184732661888,30
599621184740348597,32
599621184748035200,34
599621184755721856,36
599621184763408640,34
599621184771095296,30
599621184778781952,32
599621184786468736,53
599621184794155392,62
599621184801842176,55
599621184809528832,55
599621184817215488,55
599621184824902272,43
599621184832588928,34
599621184840275584,27
599621184847962368,27
599621184855649024,30
599621184863335808,27
599621184871022464,25
599621184878709120,32
599621184886395904,32
599621184894082560,30
599621184901769216,32
599621184909456000,13
599621184917142656,-55
599621184924829440,-117
599621184932516096,-23
599621184940202752,261
599621184947889536,494
599621184955576192,392
599621184963262848,57
599621184970949632,-124
599621184978636288,-85
599621184986323072,-55
599621184994009728,-32
599621185001696384,39
599621185009383168,55
599621185017069824,27
599621185024756480,32
599621185032443264,48
599621185040129920,41
599621185047816704,39
599621185055503360,46
599621185063190016,48
599621185070876800,48
599621185078563456,50
599621185086250112,57
599621185093936896,60
599621185101623552,60
599621185109310336,64
599621185116996992,69
599621185124683648,73
599621185132370432,78
599621185140057088,83
599621185147743744,90
599621185155430528,97
599621185163117184,101
599621185170803968,104
599621185178490624,108
599621185186177280,110
599621185193864064,106
599621185201550720,104
599621185209237376,97
599621185216924160,83
599621185224610816,60
599621185232297600,39
599621185239984256,23
599621185247670912,9
599621185255357696,0
599621185263044352,-6
599621185270731008,-11
599621185278417792,-13
599621185286104448,-11
599621185293791232,-9
599621185301477976,-6
599621185309164672,-4
599621185316851328,-2
599621185324538112,0
599621185332224768,0
599621185339911424,0
599621185347598208,4
599621185355284864,4
599621185362971648,2
599621185370658304,4
599621185378344960,6
599621185386031744,9
599621185393718400,9
599621185401405056,11
599621185409091840,13
599621185416778496,13
599621185424465280,11
599621185432151936,13
599621185439838592,16
599621185447525376,16
599621185455212032,16
599621185462898688,18
599621185470585472,16
599621185478272128,16
599621185485958912,18
599621185493645568,18
599621185501332224,18
599621185509019008,20
599621185516705664,18
599621185524392320,18
599621185532079104,20
599621185539765760,20
599621185547452544,18
599621185555139200,18
599621185562825856,20
599621185570512640,20
599621185578199296,20
599621185585885952,20
599621185593572736,23
599621185601259392,25
599621185608946176,23
599621185616632832,23
599621185624319488,25
599621185632006272,25
599621185639692928,23
599621185647379584,23
599621185655066368,25
599621185662753024,25
599621185670439808,23
599621185678126464,20
599621185685813120,23
599621185693499904,23
599621185701186560,23
599621185708873216,23
599621185716560000,25
599621185724246656,25
599621185731933440,23
599621185739620096,25
599621185747306752,25
599621185754993536,23
599621185762680192,25
599621185770366848,30
599621185778053632,27
599621185785740288,25
599621185793427072,25
599621185801113728,27
599621185808800384,27
599621185816487168,25
599621185824173824,27
599621185831860480,27
599621185839547264,25
599621185847233920,25
599621185854920704,30
599621185862607359,27
599621185870294016,20
599621185877980672,30
599621185885667456,48
599621185893354112,55
599621185901040768,53
599621185908727552,53
599621185916414208,50
599621185924100992,36
599621185931787648,23
599621185939474304,16
599621185947161088,20
599621185954847744,23
599621185962534400,20
599621185970221184,20
599621185977907840,20
599621185985594624,23
599621185993281280,23
599621186000967936,20
599621186008654720,-4
599621186016341376,-80
599621186024028032,-129
599621186031714816,9
599621186039401472,328
599621186047088256,540
599621186054774912,381
599621186062461568,16
599621186070148352,-136
599621186077835008,-85
599621186085521664,-62
599621186093208448,-34
599621186100895104,34
599621186108581888,41
599621186116268544,11
599621186123955200,20
599621186131641984,34
599621186139328640,27
599621186147015296,30
599621186154702080,36
599621186162388736,36
599621186170075520,36
599621186177762176,41
599621186185448832,43
599621186193135616,46
599621186200822272,48
599621186208508928,55
599621186216195712,60
599621186223882368,62
599621186231569152,67
599621186239255808,71
599621186246942464,80
599621186254629248,87
599621186262315904,92
599621186270002560,99
599621186277689344,104
599621186285376000,106
599621186293062784,104
599621186300749440,99
599621186308436096,92
599621186316122880,76
599621186323809536,55
599621186331496192,34
599621186339182976,16
599621186346869632,2
599621186354556416,-9
599621186362243072,-16
599621186369929728,-18
599621186377616512,-18
599621186385303168,-16
599621186392989824,-16
599621186400676608,-16
599621186408363264,-11
599621186416050048,-9
599621186423736738,-6
599621186431423360,-4
599621186439110016,-4
599621186446796800,-4
599621186454483456,-2
599621186462170112,0
599621186469856896,4
599621186477543552,4
599621186485230336,4
599621186492916992,6
599621186500603648,6
599621186508290432,4
599621186515977088,6
599621186523663744,6
599621186531350528,9
599621186539037184,9
599621186546723968,9
599621186554410624,9
599621186562097280,11
599621186569784064,13
599621186577470720,13
599621186585157376,13
599621186592844160,13
599621186600530816,11
599621186608217600,13
599621186615904256,13
599621186623590912,13
599621186631277696,13
599621186638964352,13
599621186646651008,11
599621186654337792,11
599621186662024448,13
599621186669711232,13
599621186677397888,13
599621186685084544,13
599621186692771328,11
599621186700457984,13
599621186708144640,13
599621186715831424,13
599621186723518080,16
599621186731204864,18
599621186738891520,16
599621186746578176,16
599621186754264960,18
599621186761951616,18
599621186769638272,16
599621186777325056,18
599621186785011712,18
599621186792698496,18
599621186800385152,20
599621186808071808,20
599621186815758592,18
599621186823445248,20
599621186831131904,20
599621186838818688,20
599621186846505344,20
599621186854192128,20
599621186861878784,20
599621186869565440,20
599621186877252224,20
599621186884938880,25
599621186892625536,23
599621186900312320,20
599621186907998976,23
599621186915685760,23
599621186923372416,23
599621186931059072,18
599621186938745856,13
599621186946432512,20
599621186954119168,39
599621186961805952,48
599621186969492608,48
599621186977179392,48
599621186984866117,41
599621186992552832,30
599621187000239488,20
599621187007926272,13
599621187015612928,16
599621187023299584,20
599621187030986368,18
599621187038673024,16
599621187046359808,16
599621187054046464,18
599621187061733120,16
599621187069419904,9
599621187077106560,-36
599621187084793216,-127
599621187092480000,-122
599621187100166656,115
599621187107853440,469
599621187115540096,589
599621187123226752,307
599621187130913536,-55
599621187138600192,-140
599621187146286848,-83
599621187153973632,-64
599621187161660288,-20
599621187169347072,30
599621187177033728,11
599621187184720384,-6
599621187192407168,11
599621187200093824,16
599621187207780480,11
599621187215467264,18
599621187223153920,23
599621187230840704,23
599621187238527360,25
599621187246214016,30
599621187253900800,32
599621187261587456,36
599621187269274112,39
599621187276960896,46
599621187284647552,50
599621187292334336,57
599621187300020992,62
599621187307707648,69
599621187315394432,73
599621187323081088,83
599621187330767744,92
599621187338454528,97
599621187346141184,101
599621187353827968,104
599621187361514624,101
599621187369201280,97
599621187376888064,87
599621187384574720,69
599621187392261376,46
599621187399948160,23
599621187407634816,4
599621187415321600,-6
599621187423008256,-18
599621187430694912,-25
599621187438381696,-27
599621187446068352,-27
599621187453755008,-25
599621187461441792,-23
599621187469128448,-20
599621187476815232,-18
599621187484501888,-13
599621187492188544,-13
599621187499875328,-13
599621187507561984,-11
599621187515248640,-6
599621187522935424,-6
599621187530622080,-6
599621187538308864,-2
599621187545995496,-2
599621187553682176,-2
599621187561368832,0
599621187569055616,2
599621187576742272,2
599621187584428928,2
599621187592115712,4
599621187599802368,4
599621187607489152,4
599621187615175808,4
599621187622862464,4
599621187630549248,6
599621187638235904,6
599621187645922560,6
599621187653609344,9
599621187661296000,9
599621187668982784,9
599621187676669440,9
599621187684356096,4
599621187692042880,4
599621187699729536,9
599621187707416192,9
599621187715102976,9
599621187722789632,9
599621187730476416,9
599621187738163072,9
599621187745849728,9
599621187753536512,9
599621187761223168,11
599621187768909824,13
599621187776596608,11
599621187784283264,11
599621187791970048,11
599621187799656704,16
599621187807343360,16
599621187815030144,13
599621187822716800,13
599621187830403456,13
599621187838090240,16
599621187845776896,16
599621187853463680,16
599621187861150336,16
599621187868836992,16
599621187876523776,16
599621187884210432,16
599621187891897088,18
599621187899583872,20
599621187907270528,16
599621187914957312,16
599621187922643968,18
599621187930330624,18
599621187938017408,18
599621187945704064,20
599621187953390720,18
599621187961077504,18
599621187968764160,18
599621187976450944,20
599621187984137600,20
599621187991824256,16
599621187999511040,9
599621188007197696,23
599621188014884352,43
599621188022571136,48
599621188030257792,46
599621188037944576,46
599621188045631232,41
599621188053317888,25
599621188061004672,13
599621188068691328,11
599621188076377984,18
599621188084064768,18
599621188091751424,16
599621188099438208,16
599621188107124875,16
599621188114811520,16
599621188122498176,16
599621188130184960,-4
599621188137871616,-78
599621188145558272,-152
599621188153245056,-57
599621188160931712,268
599621188168618496,600
599621188176305152,587
599621188183991808,194
599621188191678592,-131
599621188199365248,-134
599621188207051904,-69
599621188214738688,-62
599621188222425344,-9
599621188230112128,18
599621188237798784,-6
599621188245485440,-9
599621188253172224,11
599621188260858880,9
599621188268545536,6
599621188276232320,13
599621188283918976,16
599621188291605760,18
599621188299292416,23
599621188306979072,25
599621188314665856,30
599621188322352512,36
599621188330039168,41
599621188337725952,43
599621188345412608,48
599621188353099392,55
599621188360786048,62
599621188368472704,69
599621188376159488,76
599621188383846144,83
599621188391532800,92
599621188399219584,99
599621188406906240,101
599621188414593024,104
599621188422279680,101
599621188429966336,97
599621188437653120,83
599621188445339776,64
599621188453026432,39
599621188460713216,16
599621188468399872,-2
599621188476086656,-16
599621188483773312,-25
599621188491459968,-30
599621188499146752,-32
599621188506833408,-32
599621188514520064,-30
599621188522206848,-25
599621188529893504,-23
599621188537580288,-23
599621188545266944,-20
599621188552953600,-16
599621188560640384,-13
599621188568327040,-13
599621188576013696,-11
599621188583700480,-6
599621188591387136,-6
599621188599073920,-4
599621188606760576,-4
599621188614447232,-2
599621188622134016,-2
599621188629820672,0
599621188637507328,0
599621188645194112,0
599621188652880768,2
599621188660567552,2
599621188668254254,2
599621188675940992,2
599621188683627776,2
599621188691314688,-2
599621188699001472,-4
599621188706688384,-4
599621188714375168,-2
599621188722062080,0
599621188729748864,-2
599621188737435776,-2
599621188745122560,0
599621188752809472,0
599621188760496256,0
599621188768183168,2
599621188775869952,2
599621188783556736,0
599621188791243648,0
599621188798930432,0
599621188806617344,2
599621188814304128,2
599621188821991040,2
599621188829677824,2
599621188837364736,2
599621188845051520,2
599621188852738432,2
599621188860425216,4
599621188868112128,4
599621188875798912,2
599621188883485696,2
599621188891172608,4
599621188898859392,6
599621188906546304,4
599621188914233088,4
599621188921920000,6
599621188929606784,6
599621188937293696,6
599621188944980480,9
599621188952667392,9
599621188960354176,9
599621188968041088,11
599621188975727872,11
599621188983414784,9
599621188991101568,11
599621188998788352,13
599621189006475264,13
599621189014162048,13
599621189021848960,13
599621189029535744,11
599621189037222656,9
599621189044909440,2
599621189052596352,6
599621189060283136,25
599621189067970048,41
599621189075656832,41
599621189083343744,39
599621189091030528,39
599621189098717312,30
599621189106404224,13
599621189114091008,4
599621189121777920,9
599621189129464704,11
599621189137151616,9
599621189144838400,9
599621189152525312,9
599621189160212096,9
599621189167899008,11
599621189175585792,4
599621189183272704,-46
599621189190959488,-143
599621189198646272,-152
599621189206333184,85
599621189214019968,478
599621189221706880,688
599621189229393810,452
599621189237080832,4
599621189244767872,-173
599621189252454784,-104
599621189260141824,-73
599621189267828736,-50
599621189275515776,2
599621189283202688,-4
599621189290889728,-25
599621189298576640,-9
599621189306263680,0
599621189313950720,-4
599621189321637632,0
599621189329324672,6
599621189337011584,6
599621189344698624,11
599621189352385536,13
599621189360072576,18
599621189367759488,23
599621189375446528,30
599621189383133440,32
599621189390820480,36
599621189398507520,46
599621189406194432,53
599621189413881472,60
599621189421568384,67
599621189429255424,78
599621189436942336,85
599621189444629376,92
599621189452316288,97
599621189460003328,99
599621189467690368,101
599621189475377280,99
599621189483064320,90
599621189490751232,76
599621189498438272,50
599621189506125184,25
599621189513812224,4
599621189521499136,-11
599621189529186176,-25
599621189536873088,-32
599621189544560128,-34
599621189552247168,-36
599621189559934080,-34
599621189567621120,-32
599621189575308032,-30
599621189582995072,-25
599621189590681984,-23
599621189598369024,-23
599621189606055936,-20
599621189613742976,-16
599621189621430016,-13
599621189629116928,-13
599621189636803968,-11
599621189644490880,-9
599621189652177920,-6
599621189659864832,-6
599621189667551872,-6
599621189675238784,-4
599621189682925824,-2
599621189690612864,-2
599621189698299776,-2
599621189705986816,-2
599621189713673728,-4
599621189721360768,-2
599621189729047680,0
599621189736734720,0
599621189744421632,0
599621189752108672,0
599621189759795584,0
599621189767482624,0
599621189775169664,0
599621189782856576,0
599621189790543534,0
599621189798230144,2
599621189805916800,0
599621189813603584,2
599621189821290240,2
599621189828976896,2
599621189836663680,2
599621189844350336,2
599621189852037120,4
599621189859723776,2
599621189867410432,0
599621189875097216,2
599621189882783872,4
599621189890470528,4
599621189898157312,4
599621189905843968,6
599621189913530752,6
599621189921217408,6
599621189928904064,6
599621189936590848,9
599621189944277504,6
599621189951964160,9
599621189959650944,9
599621189967337600,9
599621189975024384,9
599621189982711040,11
599621189990397696,9
599621189998084480,11
599621190005771136,13
599621190013457792,13
599621190021144576,13
599621190028831232,13
599621190036518016,11
599621190044204672,11
599621190051891328,13
599621190059578112,9
599621190067264768,4
599621190074951424,20
599621190082638208,41
599621190090324864,43
599621190098011648,39
599621190105698304,41
599621190113384960,39
599621190121071744,23
599621190128758400,6
599621190136445056,4
599621190144131840,9
599621190151818496,9
599621190159505280,4
599621190167191936,6
599621190174878592,6
599621190182565376,6
599621190190252032,9
599621190197938688,-4
599621190205625472,-71
599621190213312128,-166
599621190220998912,-113
599621190228685568,194
599621190236372224,568
599621190244059008,647
599621190251745664,291
599621190259432320,-120
599621190267119104,-189
599621190274805760,-106
599621190282492544,-85
599621190290179200,-32
599621190297865856,20
599621190305552640,-4
599621190313239296,-18
599621190320925952,4
599621190328612736,9
599621190336299392,2
599621190343986176,11
599621190351672913,18
599621190359359616,16
599621190367046272,20
599621190374733056,27
599621190382419712,30
599621190390106368,32
599621190397793152,39
599621190405479808,43
599621190413166592,48
599621190420853248,55
599621190428539904,64
599621190436226688,71
599621190443913344,78
599621190451600000,90
599621190459286784,99
599621190466973440,106
599621190474660224,110
599621190482346880,115
599621190490033536,113
599621190497720320,106
599621190505406976,92
599621190513093632,71
599621190520780416,43
599621190528467072,16
599621190536153856,-4
599621190543840512,-20
599621190551527168,-32
599621190559213952,-39
599621190566900608,-41
599621190574587264,-41
599621190582274048,-39
599621190589960704,-34
599621190597647488,-32
599621190605334144,-30
599621190613020800,-27
599621190620707584,-23
599621190628394240,-20
599621190636080896,-20
599621190643767680,-20
599621190651454336,-16
599621190659141120,-11
599621190666827776,-11
599621190674514432,-11
599621190682201216,-9
599621190689887872,-6
599621190697574528,-6
599621190705261312,-4
599621190712947968,-2
599621190720634752,-2
599621190728321408,-4
599621190736008064,-2
599621190743694848,0
599621190751381504,-2
599621190759068160,-2
599621190766754944,-2
599621190774441600,0
599621190782128384,0
599621190789815040,0
599621190797501696,0
599621190805188480,2
599621190812875136,2
599621190820561792,2
599621190828248576,2
599621190835935232,4
599621190843622016,4
599621190851308672,4
599621190858995328,4
599621190866682112,4
599621190874368768,6
599621190882055424,6
599621190889742208,4
599621190897428864,6
599621190905115648,6
599621190912802292,6
599621190920488960,6
599621190928175616,9
599621190935862400,9
599621190943549056,9
599621190951235712,11
599621190958922496,11
599621190966609152,9
599621190974295936,11
599621190981982592,11
599621190989669248,9
599621190997356032,4
599621191005042688,11
599621191012729344,30
599621191020416128,43
599621191028102784,39
599621191035789568,36
599621191043476224,36
599621191051162880,27
599621191058849664,13
599621191066536320,4
599621191074222976,6
599621191081909760,11
599621191089596416,6
599621191097283200,4
599621191104969856,6
599621191112656512,11
599621191120343296,11
599621191128029952,9
599621191135716608,-16
599621191143403392,-97
599621191151090048,-164
599621191158776832,-36
599621191166463488,305
599621191174150144,591
599621191181836928,487
599621191189523584,62
599621191197210240,-198
599621191204897024,-152
599621191212583680,-99
599621191220270464,-73
599621191227957120,11
599621191235643776,36
599621191243330560,0
599621191251017216,6
599621191258703872,25
599621191266390656,20
599621191274077312,18
599621191281764096,27
599621191289450752,32
599621191297137408,32
599621191304824192,34
599621191312510848,39
599621191320197504,46
599621191327884288,50
599621191335570944,53
599621191343257728,57
599621191350944384,64
599621191358631040,71
599621191366317824,78
599621191374004480,87
599621191381691136,99
599621191389377920,106
599621191397064576,113
599621191404751360,120
599621191412438016,122
599621191420124672,122
599621191427811456,117
599621191435498112,108
599621191443184768,90
599621191450871552,60
599621191458558208,30
599621191466244992,6
599621191473931671,-9
599621191481618304,-27
599621191489304960,-36
599621191496991744,-39
599621191504678400,-39
599621191512365056,-39
599621191520051840,-36
599621191527738496,-34
599621191535425280,-30
599621191543111936,-27
599621191550798592,-27
599621191558485376,-23
599621191566172032,-20
599621191573858688,-20
599621191581545472,-18
599621191589232128,-16
599621191596918912,-13
599621191604605568,-11
599621191612292224,-9
599621191619979008,-9
599621191627665664,-6
599621191635352320,-4
599621191643039104,-2
599621191650725760,-2
599621191658412544,-2
599621191666099200,-2
599621191673785856,0
599621191681472640,0
599621191689159296,2
599621191696845952,2
599621191704532736,2
599621191712219392,2
599621191719906176,2
599621191727592832,2
599621191735279488,2
599621191742966272,2
599621191750652928,4
599621191758339584,2
599621191766026368,4
599621191773713024,6
599621191781399808,6
599621191789086464,4
599621191796773120,4
599621191804459904,9
599621191812146560,9
599621191819833216,6
599621191827520000,6
599621191835206656,9
599621191842893440,6
599621191850580096,4
599621191858266752,20
599621191865953536,39
599621191873640192,41
599621191881326848,36
599621191889013632,36
599621191896700288,30
599621191904387072,20
599621191912073728,9
599621191919760384,4
599621191927447168,6
599621191935133824,9
