599619026428824704,11
599619026436516992,9
599619026444209280,11
599619026451901568,21
599619026459593984,18
599619026467286272,11
599619026474978560,16
599619026482670848,21
599619026490363136,21
599619026498055424,21
599619026505747840,25
599619026513440128,21
599619026521132416,14
599619026528824704,18
599619026536516992,23
599619026544209280,21
599619026551901568,25
599619026559593984,30
599619026567286272,23
599619026574978560,16
599619026582670848,14
599619026590363136,11
599619026598055424,11
599619026605747840,35
599619026613440128,58
599619026621132416,58
599619026628824704,51
599619026636516992,46
599619026644209280,32
599619026651901568,21
599619026659593984,23
599619026667286272,28
599619026674978560,25
599619026682670848,25
599619026690363136,25
599619026698055424,28
599619026705747840,28
599619026713440128,4
599619026721132416,-79
599619026728824704,-138
599619026736516992,25
599619026744209280,411
599619026751901568,659
599619026759593984,383
599619026767286272,-140
599619026774978560,-250
599619026782670848,-65
599619026790363136,-9
599619026798055424,28
599619026805747840,84
599619026813440128,53
599619026821132416,30
599619026828824704,58
599619026836516992,63
599619026844209280,49
599619026851901568,53
599619026859593984,65
599619026867286272,67
599619026874978560,70
599619026882670848,77
599619026890363136,79
599619026898055424,84
599619026905747840,91
599619026913440128,95
599619026921132416,100
599619026928824704,112
599619026936516992,119
599619026944209280,121
599619026951901568,131
599619026959593984,142
599619026967286272,142
599619026974978560,147
599619026982670846,154
599619026990357504,147
599619026998044160,140
599619027005730816,138
599619027013417344,116
599619027021104000,84
599619027028790656,53
599619027036477312,25
599619027044163968,7
599619027051850624,-7
599619027059537152,-18
599619027067223808,-28
599619027074910464,-32
599619027082597120,-30
599619027090283776,-32
599619027097970432,-30
599619027105656960,-23
599619027113343616,-21
599619027121030272,-23
599619027128716928,-18
599619027136403584,-14
599619027144090240,-11
599619027151776768,-7
599619027159463424,-4
599619027167150080,-7
599619027174836736,0
599619027182523392,2
599619027190210048,-2
599619027197896576,4
599619027205583232,14
599619027213269888,7
599619027220956544,2
599619027228643200,7
599619027236329856,7
599619027244016384,7
599619027251703040,9
599619027259389696,11
599619027267076352,7
599619027274763008,4
599619027282449664,9
599619027290136192,11
599619027297822848,9
599619027305509504,9
599619027313196160,11
599619027320882816,11
599619027328569344,9
599619027336256000,7
599619027343942656,9
599619027351629312,9
599619027359315968,7
599619027367002624,-2
599619027374689152,-4
599619027382375808,14
599619027390062464,39
599619027397749120,42
599619027405435776,42
599619027413122432,39
599619027420808960,25
599619027428495616,11
599619027436182272,14
599619027443868928,21
599619027451555584,18
599619027459242240,14
599619027466928768,16
599619027474615424,18
599619027482302080,18
599619027489988736,9
599619027497675392,-30
599619027505362048,-116
599619027513048576,-121
599619027520735232,138
599619027528421888,514
599619027536108544,545
599619027543795138,88
599619027551481856,-276
599619027559168512,-187
599619027566855296,-53
599619027574541952,-35
599619027582228608,44
599619027589915392,74
599619027597602048,25
599619027605288832,25
599619027612975488,46
599619027620662144,39
599619027628348928,39
599619027636035584,49
599619027643722240,49
599619027651409024,51
599619027659095680,56
599619027666782464,58
599619027674469120,63
599619027682155776,72
599619027689842560,79
599619027697529216,79
599619027705215872,79
599619027712902656,93
599619027720589312,107
599619027728276096,112
599619027735962752,121
599619027743649408,133
599619027751336192,135
599619027759022848,138
599619027766709504,140
599619027774396288,138
599619027782082944,124
599619027789769728,105
599619027797456384,84
599619027805143040,53
599619027812829824,18
599619027820516480,-7
599619027828203136,-21
599619027835889920,-35
599619027843576576,-39
599619027851263360,-39
599619027858950016,-42
599619027866636672,-42
599619027874323456,-35
599619027882010112,-35
599619027889696768,-32
599619027897383552,-28
599619027905070208,-28
599619027912756992,-25
599619027920443648,-18
599619027928130304,-11
599619027935817088,-11
599619027943503744,-11
599619027951190400,-7
599619027958877184,2
599619027966563840,0
599619027974250624,0
599619027981937280,4
599619027989623936,7
599619027997310720,7
599619028004997376,9
599619028012684032,7
599619028020370816,7
599619028028057472,9
599619028035744256,11
599619028043430912,9
599619028051117568,7
599619028058804352,9
599619028066491008,9
599619028074177664,11
599619028081864448,9
599619028089551104,7
599619028097237888,11
599619028104924517,14
599619028112611200,11
599619028120297856,11
599619028127984640,14
599619028135671296,14
599619028143357952,11
599619028151044736,16
599619028158731392,16
599619028166418176,14
599619028174104832,11
599619028181791488,11
599619028189478272,11
599619028197164928,9
599619028204851584,9
599619028212538368,9
599619028220225024,4
599619028227911808,-4
599619028235598464,-7
599619028243285120,11
599619028250971904,37
599619028258658560,46
599619028266345216,44
599619028274032000,44
599619028281718656,28
599619028289405440,11
599619028297092096,11
599619028304778752,18
599619028312465536,18
599619028320152192,16
599619028327838848,18
599619028335525632,21
599619028343212288,21
599619028350899072,14
599619028358585728,-39
599619028366272384,-135
599619028373959168,-109
599619028381645824,184
599619028389332480,568
599619028397019264,591
599619028404705920,149
599619028412392704,-201
599619028420079360,-142
599619028427766016,-25
599619028435452800,0
599619028443139456,39
599619028450826112,42
599619028458512896,11
599619028466199552,23
599619028473886336,35
599619028481572992,28
599619028489259648,32
599619028496946432,39
599619028504633088,37
599619028512319744,37
599619028520006528,44
599619028527693184,51
599619028535379968,53
599619028543066624,56
599619028550753280,60
599619028558440064,65
599619028566126720,70
599619028573813376,79
599619028581500160,81
599619028589186816,84
599619028596873600,95
599619028604560256,102
599619028612246912,105
599619028619933696,109
599619028627620352,107
599619028635307008,105
599619028642993792,102
599619028650680448,93
599619028658367232,72
599619028666053896,51
599619028673740544,25
599619028681427200,-2
599619028689113984,-16
599619028696800640,-25
599619028704487296,-35
599619028712174080,-37
599619028719860736,-35
599619028727547520,-35
599619028735234176,-35
599619028742920832,-32
599619028750607616,-28
599619028758294272,-28
599619028765980928,-25
599619028773667712,-21
599619028781354368,-18
599619028789041152,-16
599619028796727808,-11
599619028804414464,-11
599619028812101248,-9
599619028819787904,-4
599619028827474560,-2
599619028835161344,0
599619028842848000,4
599619028850534784,4
599619028858221440,7
599619028865908096,9
599619028873594880,9
599619028881281536,11
599619028888968192,11
599619028896654976,9
599619028904341632,9
599619028912028416,11
599619028919715072,9
599619028927401728,9
599619028935088512,14
599619028942775168,14
599619028950461824,16
599619028958148608,18
599619028965835264,18
599619028973522048,16
599619028981208704,16
599619028988895360,11
599619028996582144,9
599619029004268800,14
599619029011955456,18
599619029019642240,18
599619029027328896,23
599619029035015680,21
599619029042702336,18
599619029050388992,21
599619029058075776,16
599619029065762432,11
599619029073449088,18
599619029081135872,18
599619029088822528,14
599619029096509312,18
599619029104195968,18
599619029111882624,11
599619029119569408,11
599619029127256064,11
599619029134942720,7
599619029142629504,16
599619029150316160,42
599619029158002944,58
599619029165689600,56
599619029173376256,49
599619029181063040,28
599619029188749696,9
599619029196436352,14
599619029204123136,18
599619029211809792,11
599619029219496576,11
599619029227183275,16
599619029234869888,14
599619029242556544,11
599619029250243328,9
599619029257929984,-39
599619029265616640,-133
599619029273303424,-116
599619029280990080,163
599619029288676864,549
599619029296363520,603
599619029304050176,159
599619029311736960,-245
599619029319423616,-191
599619029327110272,-49
599619029334797056,-25
599619029342483712,21
599619029350170496,37
599619029357857152,4
599619029365543808,9
599619029373230592,21
599619029380917248,11
599619029388603904,16
599619029396290688,23
599619029403977344,21
599619029411664128,28
599619029419350784,37
599619029427037440,39
599619029434724224,39
599619029442410880,42
599619029450097536,49
599619029457784320,58
599619029465470976,63
599619029473157760,67
599619029480844416,81
599619029488531072,91
599619029496217856,93
599619029503904512,102
599619029511591168,119
599619029519277952,116
599619029526964608,112
599619029534651392,112
599619029542338048,109
599619029550024704,98
599619029557711488,74
599619029565398144,51
599619029573084800,23
599619029580771584,-2
599619029588458240,-23
599619029596145024,-37
599619029603831680,-44
599619029611518336,-42
599619029619205120,-44
599619029626891776,-51
599619029634578432,-42
599619029642265216,-32
599619029649951872,-46
599619029657638656,-51
599619029665325312,-35
599619029673011968,-25
599619029680698752,-28
599619029688385408,-30
599619029696072064,-25
599619029703758848,-21
599619029711445504,-16
599619029719132288,-16
599619029726818944,-16
599619029734505600,-16
599619029742192384,-9
599619029749879040,-2
599619029757565696,-4
599619029765252480,-9
599619029772939136,-7
599619029780625920,-2
599619029788312654,-2
599619029795999360,2
599619029803686016,2
599619029811372800,-2
599619029819059456,-2
599619029826746112,0
599619029834432896,2
599619029842119552,-2
599619029849806336,-4
599619029857492992,-2
599619029865179648,0
599619029872866432,0
599619029880553088,0
599619029888239744,2
599619029895926528,4
599619029903613184,2
599619029911299968,2
599619029918986624,4
599619029926673280,7
599619029934360064,4
599619029942046720,4
599619029949733376,4
599619029957420160,2
599619029965106816,2
599619029972793600,7
599619029980480256,9
599619029988166912,4
599619029995853696,2
599619030003540352,-2
599619030011227008,-9
599619030018913792,-7
599619030026600448,23
599619030034287232,44
599619030041973888,37
599619030049660544,35
599619030057347328,30
599619030065033984,7
599619030072720640,0
599619030080407424,11
599619030088094080,9
599619030095780864,7
599619030103467520,14
599619030111154176,16
599619030118840960,9
599619030126527616,7
599619030134214272,-18
599619030141901056,-98
599619030149587712,-149
599619030157274496,9
599619030164961152,386
599619030172647808,622
599619030180334592,353
599619030188021248,-124
599619030195707904,-226
599619030203394688,-74
599619030211081344,-18
599619030218768128,9
599619030226454784,35
599619030234141440,9
599619030241828224,2
599619030249514880,23
599619030257201536,23
599619030264888320,18
599619030272574976,25
599619030280261760,32
599619030287948416,35
599619030295635072,30
599619030303321856,32
599619030311008512,44
599619030318695168,44
599619030326381952,44
599619030334068608,56
599619030341755392,67
599619030349442037,65
599619030357128704,70
599619030364815360,86
599619030372502144,91
599619030380188800,93
599619030387875456,105
599619030395562240,102
599619030403248896,102
599619030410935680,112
599619030418622336,109
599619030426308992,95
599619030433995776,79
599619030441682432,56
599619030449369088,28
599619030457055872,4
599619030464742528,-16
599619030472429312,-28
599619030480115968,-32
599619030487802624,-42
599619030495489408,-44
599619030503176064,-35
599619030510862720,-32
599619030518549504,-35
599619030526236160,-28
599619030533922944,-25
599619030541609600,-30
599619030549296256,-25
599619030556983040,-16
599619030564669696,-16
599619030572356352,-14
599619030580043136,-9
599619030587729792,-9
599619030595416576,-7
599619030603103232,-2
599619030610789888,0
599619030618476672,4
599619030626163328,11
599619030633849984,7
599619030641536768,7
599619030649223424,14
599619030656910208,16
599619030664596864,11
599619030672283520,11
599619030679970304,16
599619030687656960,11
599619030695343616,11
599619030703030400,21
599619030710717056,18
599619030718403840,7
599619030726090496,11
599619030733777152,14
599619030741463936,11
599619030749150592,14
599619030756837248,14
599619030764524032,11
599619030772210688,18
599619030779897472,23
599619030787584128,16
599619030795270784,16
599619030802957568,23
599619030810644224,23
599619030818330880,16
599619030826017664,14
599619030833704320,14
599619030841391104,18
599619030849077760,23
599619030856764416,23
599619030864451200,21
599619030872137856,14
599619030879824512,11
599619030887511296,16
599619030895197952,11
599619030902884736,4
599619030910571416,28
599619030918258048,56
599619030925944704,53
599619030933631488,49
599619030941318144,42
599619030949004800,23
599619030956691584,21
599619030964378240,28
599619030972065024,23
599619030979751680,21
599619030987438336,23
599619030995125120,18
599619031002811776,21
599619031010498432,23
599619031018185216,-7
599619031025871872,-95
599619031033558656,-142
599619031041245312,32
599619031048931968,409
599619031056618752,627
599619031064305408,353
599619031071992064,-91
599619031079678848,-177
599619031087365504,-42
599619031095052288,23
599619031102738944,39
599619031110425600,30
599619031118112384,14
599619031125799040,23
599619031133485696,30
599619031141172480,28
599619031148859136,37
599619031156545920,42
599619031164232576,35
599619031171919232,32
599619031179606016,37
599619031187292672,46
599619031194979328,49
599619031202666112,46
599619031210352768,58
599619031218039552,67
599619031225726208,51
599619031233412864,37
599619031241099648,67
599619031248786304,93
599619031256472960,84
599619031264159744,77
599619031271846400,95
599619031279533184,100
599619031287219840,88
599619031294906496,91
599619031302593280,98
599619031310279936,79
599619031317966592,67
599619031325653376,72
599619031333340032,44
599619031341026816,-11
599619031348713472,-32
599619031356400128,-23
599619031364086912,-32
599619031371773568,-42
599619031379460224,-37
599619031387147008,-42
599619031394833664,-44
599619031402520448,-32
599619031410207104,-32
599619031417893760,-37
599619031425580544,-25
599619031433267200,-14
599619031440953856,-16
599619031448640640,-21
599619031456327296,-14
599619031464014080,-4
599619031471700795,-11
599619031479387008,-16
599619031487073280,-7
599619031494759552,-7
599619031502445824,-7
599619031510132096,2
599619031517818496,4
599619031525504768,-2
599619031533191040,-2
599619031540877312,-2
599619031548563584,0
599619031556249856,2
599619031563936128,4
599619031571622400,2
599619031579308672,0
599619031586995072,4
599619031594681344,11
599619031602367616,9
599619031610053888,4
599619031617740160,11
599619031625426432,11
599619031633112704,7
599619031640798976,7
599619031648485248,11
599619031656171520,14
599619031663857920,11
599619031671544192,11
599619031679230464,14
599619031686916736,14
599619031694603008,14
599619031702289280,16
599619031709975552,11
599619031717661824,9
599619031725348096,9
599619031733034496,2
599619031740720768,-2
599619031748407040,21
599619031756093312,49
599619031763779584,49
599619031771465856,44
599619031779152128,44
599619031786838400,23
599619031794524672,9
599619031802211072,14
599619031809897344,16
599619031817583616,16
599619031825269888,18
599619031832956160,18
599619031840642432,25
599619031848328704,23
599619031856014976,-4
599619031863701248,-81
599619031871387520,-142
599619031879073920,4
599619031886760192,386
599619031894446464,652
599619031902132736,404
599619031909819008,-109
599619031917505280,-243
599619031925191552,-74
599619031932877824,-4
599619031940564096,25
599619031948250496,60
599619031955936768,32
599619031963623040,21
599619031971309312,44
599619031978995584,46
599619031986681856,39
599619031994368128,46
599619032002054400,51
599619032009740672,53
599619032017427072,63
599619032025113344,65
599619032032799656,60
599619032040486272,67
599619032048172928,79
599619032055859712,84
599619032063546368,84
599619032071233024,93
599619032078919808,105
599619032086606464,109
599619032094293248,112
599619032101979904,126
599619032109666560,133
599619032117353344,135
599619032125040000,140
599619032132726656,140
599619032140413440,135
599619032148100096,126
599619032155786880,109
599619032163473536,84
599619032171160192,51
599619032178846976,25
599619032186533632,2
599619032194220288,-18
599619032201907072,-21
599619032209593728,-23
599619032217280512,-30
599619032224967168,-30
599619032232653824,-23
599619032240340608,-25
599619032248027264,-25
599619032255713920,-25
599619032263400704,-23
599619032271087360,-18
599619032278774144,-14
599619032286460800,-11
599619032294147456,-4
599619032301834240,4
599619032309520896,0
599619032317207552,0
599619032324894336,7
599619032332580992,16
599619032340267776,18
599619032347954432,16
599619032355641088,18
599619032363327872,18
599619032371014528,18
599619032378701184,23
599619032386387968,23
599619032394074624,16
599619032401761408,18
599619032409448064,25
599619032417134720,25
599619032424821504,23
599619032432508160,25
599619032440194816,23
599619032447881600,25
599619032455568256,28
599619032463255040,28
599619032470941696,28
599619032478628352,30
599619032486315136,32
599619032494001792,32
599619032501688448,25
599619032509375232,21
599619032517061888,16
599619032524748672,11
599619032532435328,32
599619032540121984,65
599619032547808768,65
599619032555495424,56
599619032563182080,65
599619032570868864,53
599619032578555520,25
599619032586242304,32
599619032593929035,53
599619032601615744,42
599619032609302400,30
599619032616989184,42
599619032624675840,49
599619032632362496,37
599619032640049280,30
599619032647735936,-4
599619032655422720,-100
599619032663109376,-114
599619032670796032,140
599619032678482816,521
599619032686169472,580
599619032693856128,156
599619032701542912,-219
599619032709229568,-168
599619032716916352,-32
599619032724603008,-7
599619032732289664,51
599619032739976448,79
599619032747663104,39
599619032755349760,37
599619032763036544,60
599619032770723200,53
599619032778409984,49
599619032786096640,58
599619032793783296,60
599619032801470080,60
599619032809156736,65
599619032816843392,67
599619032824530176,70
599619032832216832,74
599619032839903616,84
599619032847590272,91
599619032855276928,91
599619032862963712,95
599619032870650368,107
599619032878337024,114
599619032886023808,121
599619032893710464,131
599619032901397248,138
599619032909083904,135
599619032916770560,135
599619032924457344,135
599619032932144000,126
599619032939830656,112
599619032947517440,91
599619032955204096,63
599619032962890880,30
599619032970577536,2
599619032978264192,-11
599619032985950976,-21
599619032993637632,-28
599619033001324288,-30
599619033009011072,-28
599619033016697728,-25
599619033024384512,-25
599619033032071168,-23
599619033039757824,-18
599619033047444608,-18
599619033055131264,-18
599619033062817920,-14
599619033070504704,-11
599619033078191360,-11
599619033085878144,-7
599619033093564800,-2
599619033101251456,2
599619033108938240,4
599619033116624896,4
599619033124311552,2
599619033131998336,7
599619033139684992,14
599619033147371776,11
599619033155058414,11
599619033162745088,16
599619033170431744,16
599619033178118528,14
599619033185805184,9
599619033193491840,9
599619033201178624,14
599619033208865280,14
599619033216552064,11
599619033224238720,14
599619033231925376,14
599619033239612160,14
599619033247298816,14
599619033254985472,14
599619033262672256,18
599619033270358912,18
599619033278045696,16
599619033285732352,18
599619033293419008,18
599619033301105792,16
599619033308792448,16
599619033316479104,18
599619033324165888,21
599619033331852544,18
599619033339539328,14
599619033347225984,9
599619033354912640,4
599619033362599424,2
599619033370286080,23
599619033377972736,46
599619033385659520,49
599619033393346176,51
599619033401032960,53
599619033408719616,30
599619033416406272,14
599619033424093056,21
599619033431779712,28
599619033439466368,23
599619033447153152,25
599619033454839808,28
599619033462526592,23
599619033470213248,23
599619033477899904,14
599619033485586688,-51
599619033493273344,-142
599619033500960000,-74
599619033508646784,255
599619033516333440,617
599619033524020224,563
599619033531706880,91
599619033539393536,-196
599619033547080320,-105
599619033554766976,-2
599619033562453632,21
599619033570140416,37
599619033577827072,25
599619033585513856,16
599619033593200512,28
599619033600887168,30
599619033608573952,25
599619033616260608,32
599619033623947264,37
599619033631634048,37
599619033639320704,39
599619033647007488,42
599619033654694144,46
599619033662380800,49
599619033670067584,53
599619033677754240,58
599619033685440896,60
599619033693127680,67
599619033700814336,74
599619033708501120,79
599619033716187797,84
599619033723874560,88
599619033731561344,95
599619033739248256,102
599619033746935040,102
599619033754621952,98
599619033762308736,95
599619033769995648,91
599619033777682432,77
599619033785369344,60
599619033793056128,37
599619033800743040,11
599619033808429824,-9
599619033816116736,-21
599619033823803520,-30
599619033831490304,-35
599619033839177216,-35
599619033846864000,-35
599619033854550912,-32
599619033862237696,-28
599619033869924608,-28
599619033877611392,-25
599619033885298304,-21
599619033892985088,-21
599619033900672000,-18
599619033908358784,-16
599619033916045696,-14
599619033923732480,-11
599619033931419264,-7
599619033939106176,-2
599619033946792960,-2
599619033954479872,0
599619033962166656,2
599619033969853568,4
599619033977540352,7
599619033985227264,7
599619033992914048,9
599619034000600960,11
599619034008287744,11
599619034015974656,9
599619034023661440,9
599619034031348224,9
599619034039035136,11
599619034046721920,11
599619034054408832,9
599619034062095616,9
599619034069782528,9
599619034077469312,14
599619034085156224,14
599619034092843008,14
599619034100529920,14
599619034108216704,14
599619034115903616,16
599619034123590400,16
599619034131277312,16
599619034138964096,18
599619034146650880,16
599619034154337792,16
599619034162024576,18
599619034169711488,18
599619034177398272,16
599619034185085184,18
599619034192771968,18
599619034200458880,16
599619034208145664,11
599619034215832576,9
599619034223519360,4
599619034231206272,0
599619034238893056,14
599619034246579840,42
599619034254266752,56
599619034261953536,51
599619034269640448,44
599619034277327350,30
599619034285013888,11
599619034292700416,11
599619034300387072,21
599619034308073600,21
599619034315760128,16
599619034323446656,18
599619034331133312,21
599619034338819840,21
599619034346506368,9
599619034354193024,-46
599619034361879552,-140
599619034369566080,-98
599619034377252608,212
599619034384939264,594
599619034392625792,591
599619034400312320,121
599619034407998976,-222
599619034415685504,-142
599619034423372032,-18
599619034431058560,9
599619034438745216,39
599619034446431744,25
599619034454118272,4
599619034461804928,21
599619034469491456,28
599619034477177984,21
599619034484864512,28
599619034492551168,32
599619034500237696,32
599619034507924224,35
599619034515610880,42
599619034523297408,42
599619034530983936,44
599619034538670464,51
599619034546357120,58
599619034554043648,60
599619034561730176,67
599619034569416832,72
599619034577103360,79
599619034584789888,88
599619034592476416,95
599619034600163072,98
599619034607849600,102
599619034615536128,107
599619034623222784,107
599619034630909312,105
599619034638595840,100
599619034646282368,88
599619034653969024,72
599619034661655552,49
599619034669342080,23
599619034677028736,-2
599619034684715264,-18
599619034692401792,-25
599619034700088320,-32
599619034707774976,-37
599619034715461504,-42
599619034723148032,-39
599619034730834688,-32
599619034738521216,-30
599619034746207744,-30
599619034753894272,-30
599619034761580928,-25
599619034769267456,-25
599619034776953984,-28
599619034784640640,-23
599619034792327168,-18
599619034800013696,-16
599619034807700224,-11
599619034815386880,-9
599619034823073408,-7
599619034830759936,-4
599619034838446555,0
599619034846133248,-2
599619034853819904,0
599619034861506688,2
599619034869193344,2
599619034876880000,0
599619034884566784,4
599619034892253440,4
599619034899940224,4
599619034907626880,2
599619034915313536,4
599619034923000320,2
599619034930686976,2
599619034938373632,2
599619034946060416,4
599619034953747072,2
599619034961433856,4
599619034969120512,7
599619034976807168,4
599619034984493952,4
599619034992180608,9
599619034999867264,11
599619035007554048,7
599619035015240704,4
599619035022927488,7
599619035030614144,7
599619035038300800,9
599619035045987584,9
599619035053674240,9
599619035061360896,9
599619035069047680,7
599619035076734336,4
599619035084421120,0
599619035092107776,-2
599619035099794432,11
599619035107481216,35
599619035115167872,44
599619035122854528,39
599619035130541312,37
599619035138227968,21
599619035145914752,7
599619035153601408,9
599619035161288064,11
599619035168974848,9
599619035176661504,11
599619035184348160,16
599619035192034944,11
599619035199721600,11
599619035207408384,4
599619035215095040,-46
599619035222781696,-131
599619035230468480,-79
599619035238155136,222
599619035245841792,549
599619035253528576,470
599619035261215232,-11
599619035268902016,-285
599619035276588672,-154
599619035284275328,-44
599619035291962112,-16
599619035299648768,51
599619035307335424,49
599619035315022208,9
599619035322708864,25
599619035330395648,42
599619035338082304,32
599619035345768960,32
599619035353455744,39
599619035361142400,42
599619035368829056,44
599619035376515840,46
599619035384202496,53
599619035391889280,58
599619035399575934,60
599619035407262592,67
599619035414949248,70
599619035422636032,74
599619035430322688,81
599619035438009344,88
599619035445696128,93
599619035453382784,100
599619035461069568,107
599619035468756224,109
599619035476442880,109
599619035484129664,109
599619035491816320,107
599619035499502976,102
599619035507189760,88
599619035514876416,67
599619035522563200,42
599619035530249856,14
599619035537936512,-9
599619035545623296,-28
599619035553309952,-35
599619035560996608,-37
599619035568683392,-42
599619035576370048,-44
599619035584056832,-44
599619035591743488,-39
599619035599430144,-37
599619035607116928,-37
599619035614803584,-35
599619035622490240,-30
599619035630177024,-25
599619035637863680,-21
599619035645550464,-16
599619035653237120,-14
599619035660923776,-14
599619035668610560,-14
599619035676297216,-7
599619035683983872,-4
599619035691670656,-7
599619035699357312,-2
599619035707044096,2
599619035714730752,2
599619035722417408,-2
599619035730104192,0
599619035737790848,2
599619035745477504,2
599619035753164288,2
599619035760850944,2
599619035768537728,0
599619035776224384,-4
599619035783911040,-4
599619035791597824,0
599619035799284480,2
599619035806971136,2
599619035814657920,0
599619035822344576,0
599619035830031360,4
599619035837718016,2
599619035845404672,2
599619035853091456,4
599619035860778112,7
599619035868464768,4
599619035876151552,7
599619035883838208,9
599619035891524992,7
599619035899211648,9
599619035906898304,11
599619035914585088,11
599619035922271744,11
599619035929958400,9
599619035937645184,9
599619035945331840,7
599619035953018624,2
599619035960705313,-7
599619035968391936,-11
599619035976078592,9
599619035983765376,35
599619035991452032,42
599619035999138688,42
599619036006825472,39
599619036014512128,21
599619036022198912,4
599619036029885568,4
599619036037572224,9
599619036045259008,11
599619036052945664,9
599619036060632320,11
599619036068319104,11
599619036076005760,9
599619036083692544,2
599619036091379200,-53
599619036099065856,-145
599619036106752640,-98
599619036114439296,212
599619036122125952,582
599619036129812736,559
599619036137499392,100
599619036145186176,-208
599619036152872832,-126
599619036160559488,-14
599619036168246272,14
599619036175932928,32
599619036183619584,14
599619036191306368,0
599619036198993024,18
599619036206679808,21
599619036214366464,16
599619036222053120,23
599619036229739904,30
599619036237426560,30
599619036245113216,30
599619036252800000,30
599619036260486656,35
599619036268173440,39
599619036275860096,44
599619036283546752,46
599619036291233536,49
599619036298920192,53
599619036306606848,58
599619036314293632,67
599619036321980288,72
599619036329667072,74
599619036337353728,79
599619036345040384,88
599619036352727168,93
599619036360413824,88
599619036368100480,84
599619036375787264,81
599619036383473920,70
599619036391160704,51
599619036398847360,32
599619036406534016,9
599619036414220800,-9
599619036421907456,-23
599619036429594112,-32
599619036437280896,-37
599619036444967552,-39
599619036452654336,-39
599619036460340992,-37
599619036468027648,-35
599619036475714432,-35
599619036483401088,-30
599619036491087744,-28
599619036498774528,-28
599619036506461184,-23
599619036514147968,-21
599619036521834692,-21
599619036529521408,-18
599619036537208064,-11
599619036544894848,-9
599619036552581504,-9
599619036560268160,-7
599619036567954944,-7
599619036575641600,-7
599619036583328384,-2
599619036591015040,2
599619036598701696,2
599619036606388480,2
599619036614075136,2
599619036621761792,0
599619036629448576,0
599619036637135232,0
599619036644822016,2
599619036652508672,4
599619036660195328,7
599619036667882112,7
599619036675568768,2
599619036683255424,2
599619036690942208,4
599619036698628864,7
599619036706315648,9
599619036714002304,9
599619036721688960,7
599619036729375744,9
599619036737062400,11
599619036744749056,9
599619036752435840,9
599619036760122496,11
599619036767809280,11
599619036775495936,11
599619036783182592,11
599619036790869376,9
599619036798556032,9
599619036806242688,9
599619036813929472,7
599619036821616128,9
599619036829302912,14
599619036836989568,14
599619036844676224,9
599619036852363008,11
599619036860049664,11
599619036867736320,9
599619036875423104,4
599619036883109760,2
599619036890796544,9
599619036898483200,30
599619036906169856,49
599619036913856640,49
599619036921543296,42
599619036929229952,25
599619036936916736,11
599619036944603392,14
599619036952290176,18
599619036959976832,16
599619036967663488,16
599619036975350272,21
599619036983036928,16
599619036990723584,14
599619036998410368,11
599619037006097024,-46
599619037013783808,-140
599619037021470464,-74
599619037029157120,257
599619037036843904,612
599619037044530560,552
599619037052217216,49
599619037059904000,-271
599619037067590656,-149
599619037075277440,-18
599619037082964075,4
599619037090650752,44
599619037098337408,35
599619037106024192,7
599619037113710848,23
599619037121397504,37
599619037129084288,32
599619037136770944,32
599619037144457728,37
599619037152144384,35
599619037159831040,42
599619037167517824,51
599619037175204480,49
599619037182891136,46
599619037190577920,56
599619037198264576,63
599619037205951360,65
599619037213638016,74
599619037221324672,79
599619037229011456,84
599619037236698112,93
599619037244384768,105
599619037252071552,114
599619037259758208,116
599619037267444992,116
599619037275131648,119
599619037282818304,116
599619037290505088,109
599619037298191744,100
599619037305878400,84
599619037313565184,56
599619037321251840,25
599619037328938624,2
599619037336625280,-14
599619037344311936,-28
599619037351998720,-37
599619037359685376,-39
599619037367372032,-39
599619037375058816,-39
599619037382745472,-44
599619037390432256,-42
599619037398118912,-30
599619037405805568,-23
599619037413492352,-28
599619037421179008,-28
599619037428865664,-18
599619037436552448,-18
599619037444239104,-18
599619037451925888,-11
599619037459612544,-7
599619037467299200,-9
599619037474985984,-7
599619037482672640,0
599619037490359296,2
599619037498046080,2
599619037505732736,4
599619037513419520,2
599619037521106176,0
599619037528792832,2
599619037536479616,11
599619037544166272,11
599619037551852928,2
599619037559539712,0
599619037567226368,2
599619037574913152,4
599619037582599808,9
599619037590286464,11
599619037597973248,9
599619037605659904,7
599619037613346560,11
599619037621033344,11
599619037628720000,11
599619037636406784,11
599619037644093454,7
599619037651780096,7
599619037659466752,11
599619037667153536,16
599619037674840192,14
599619037682526848,9
599619037690213632,7
599619037697900288,2
599619037705587072,0
599619037713273728,16
599619037720960384,37
599619037728647168,39
599619037736333824,42
599619037744020480,39
599619037751707264,16
599619037759393920,2
599619037767080704,11
599619037774767360,23
599619037782454016,16
599619037790140800,11
599619037797827456,14
599619037805514112,16
599619037813200896,14
599619037820887552,0
599619037828574336,-63
599619037836260992,-142
599619037843947648,-58
599619037851634432,271
599619037859321088,573
599619037867007744,425
599619037874694528,-70
599619037882381184,-283
599619037890067968,-126
599619037897754624,-35
599619037905441280,-4
599619037913128064,60
599619037920814720,51
599619037928501376,14
599619037936188160,35
599619037943874816,46
599619037951561600,35
599619037959248256,39
599619037966934912,53
599619037974621696,49
599619037982308352,46
599619037989995008,51
599619037997681792,58
599619038005368448,63
599619038013055232,70
599619038020741888,72
599619038028428544,74
599619038036115328,77
599619038043801984,88
599619038051488640,107
599619038059175424,114
599619038066862080,112
599619038074548864,116
599619038082235520,124
599619038089922176,126
599619038097608960,126
599619038105295616,124
599619038112982272,114
599619038120669056,95
599619038128355712,72
599619038136042496,42
599619038143729152,14
599619038151415808,-4
599619038159102592,-21
599619038166789248,-32
599619038174475904,-37
599619038182162688,-37
599619038189849344,-37
599619038197536128,-37
599619038205222833,-35
599619038212909440,-32
599619038220596096,-30
599619038228282880,-30
599619038235969536,-25
599619038243656192,-18
599619038251342976,-16
599619038259029632,-16
599619038266716416,-9
599619038274403072,-4
599619038282089728,-9
599619038289776512,-9
599619038297463168,-7
599619038305149824,-4
599619038312836608,-2
599619038320523264,2
599619038328210048,2
599619038335896704,2
599619038343583360,4
599619038351270144,4
599619038358956800,2
599619038366643456,4
599619038374330240,4
599619038382016896,4
599619038389703680,4
599619038397390336,2
599619038405076992,4
599619038412763776,9
599619038420450432,9
599619038428137088,9
599619038435823872,9
599619038443510528,9
599619038451197312,9
599619038458883968,11
599619038466570624,11
599619038474257408,9
599619038481944064,11
599619038489630720,16
599619038497317504,14
599619038505004160,9
599619038512690944,11
599619038520377600,14
599619038528064256,11
599619038535751040,9
599619038543437696,2
599619038551124352,-2
599619038558811136,-2
599619038566497792,11
599619038574184576,37
599619038581871232,46
599619038589557888,44
599619038597244672,49
599619038604931328,35
599619038612617984,9
599619038620304768,11
599619038627991424,18
599619038635678208,16
599619038643364864,18
599619038651051520,18
599619038658738304,14
599619038666424960,18
599619038674111616,16
599619038681798400,-37
599619038689485056,-138
599619038697171840,-112
599619038704858496,180
599619038712545152,563
599619038720231936,601
599619038727918592,166
599619038735605248,-194
599619038743292032,-145
599619038750978688,-21
599619038758665472,14
599619038766352212,37
599619038774038912,25
599619038781725568,7
599619038789412224,18
599619038797098752,25
599619038804785408,23
599619038812472064,25
599619038820158720,28
599619038827845376,28
599619038835532032,32
599619038843218560,35
599619038850905216,35
599619038858591872,39
599619038866278528,44
599619038873965184,46
599619038881651840,53
599619038889338368,63
599619038897025024,63
599619038904711680,65
599619038912398336,74
599619038920084992,84
599619038927771648,86
599619038935458176,88
599619038943144832,95
599619038950831488,100
599619038958518144,95
599619038966204800,91
599619038973891456,81
599619038981577984,65
599619038989264640,42
599619038996951296,18
599619039004637952,-4
599619039012324608,-21
599619039020011264,-28
599619039027697792,-32
599619039035384448,-35
599619039043071104,-37
599619039050757760,-37
599619039058444416,-32
599619039066131072,-30
599619039073817600,-28
599619039081504256,-25
599619039089190912,-18
599619039096877568,-21
599619039104564224,-23
599619039112250880,-14
599619039119937408,-9
599619039127624064,-9
599619039135310720,-7
599619039142997376,-2
599619039150684032,2
599619039158370560,4
599619039166057216,7
599619039173743872,9
599619039181430528,11
599619039189117184,11
599619039196803840,14
599619039204490368,16
599619039212177024,16
599619039219863680,16
599619039227550336,16
599619039235236992,18
599619039242923648,18
599619039250610176,18
599619039258296832,18
599619039265983488,18
599619039273670144,21
599619039281356800,21
599619039289043456,23
599619039296729984,28
599619039304416640,28
599619039312103296,23
599619039319789952,23
599619039327476508,23
599619039335162880,18
599619039342849280,18
599619039350535552,18
599619039358221952,16
599619039365908352,14
599619039373594624,14
599619039381281024,18
599619039388967424,21
599619039396653696,21
599619039404340096,21
599619039412026496,16
599619039419712768,11
599619039427399168,18
599619039435085440,42
599619039442771840,53
599619039450458240,49
599619039458144512,46
599619039465830912,37
599619039473517312,21
599619039481203584,18
599619039488889984,25
599619039496576384,25
599619039504262656,25
599619039511949056,28
599619039519635456,28
599619039527321728,28
599619039535008128,30
599619039542694528,-7
599619039550380800,-91
599619039558067200,-86
599619039565753600,156
599619039573439872,481
599619039581126272,479
599619039588812672,58
599619039596498944,-259
599619039604185344,-170
599619039611871616,-35
599619039619558016,2
599619039627244416,74
599619039634930688,93
599619039642617088,49
599619039650303488,58
599619039657989760,79
599619039665676160,65
599619039673362560,60
599619039681048832,72
599619039688735232,74
599619039696421632,72
599619039704107904,74
599619039711794304,79
599619039719480704,86
599619039727166976,93
599619039734853376,98
599619039742539776,100
599619039750226048,105
599619039757912448,109
599619039765598720,112
599619039773285120,116
599619039780971520,124
599619039788657792,131
599619039796344192,135
599619039804030592,131
599619039811716864,131
599619039819403264,131
599619039827089664,121
599619039834775936,107
599619039842462336,91
599619039850148736,67
599619039857835008,37
599619039865521408,18
599619039873207808,7
599619039880894080,-7
599619039888580452,-11
599619039896267136,-7
599619039903953792,-9
599619039911640576,-14
599619039919327232,-11
599619039927013888,-9
599619039934700672,-7
599619039942387328,-9
599619039950074112,-7
599619039957760768,-4
599619039965447424,0
599619039973134208,2
599619039980820864,7
599619039988507520,9
599619039996194304,11
599619040003880960,14
599619040011567744,16
599619040019254400,18
599619040026941056,18
599619040034627840,23
599619040042314496,25
599619040050001152,25
599619040057687936,28
599619040065374592,32
599619040073061376,30
599619040080748032,28
599619040088434688,28
599619040096121472,25
599619040103808128,25
599619040111494784,30
599619040119181568,30
599619040126868224,28
599619040134555008,28
599619040142241664,30
599619040149928320,28
599619040157615104,30
599619040165301760,35
599619040172988416,32
599619040180675200,30
599619040188361856,32
599619040196048640,28
599619040203735296,18
599619040211421952,16
599619040219108736,18
599619040226795392,32
599619040234482048,49
599619040242168832,53
599619040249855488,56
599619040257542272,60
599619040265228928,46
599619040272915584,28
599619040280602368,25
599619040288289024,32
599619040295975680,37
599619040303662464,35
599619040311349120,32
599619040319035904,30
599619040326722560,30
599619040334409216,25
599619040342096000,-7
599619040349782656,-88
599619040357469312,-116
599619040365156096,74
599619040372842752,423
599619040380529536,545
599619040388216192,226
599619040395902848,-119
599619040403589632,-114
599619040411276288,14
599619040418962944,49
599619040426649728,39
599619040434336384,32
599619040442023168,30
599619040449709835,32
599619040457396480,39
599619040465083136,42
599619040472769920,37
599619040480456576,37
599619040488143232,44
599619040495830016,46
599619040503516672,51
599619040511203456,53
599619040518890112,53
599619040526576768,49
599619040534263552,53
599619040541950208,58
599619040549636864,56
599619040557323648,58
599619040565010304,65
599619040572697088,67
599619040580383744,74
599619040588070400,81
599619040595757184,86
599619040603443840,86
599619040611130496,84
599619040618817280,84
599619040626503936,79
599619040634190720,74
599619040641877376,63
599619040649564032,44
599619040657250816,21
599619040664937472,4
599619040672624128,-7
599619040680310912,-14
599619040687997568,-21
599619040695684352,-23
599619040703371008,-21
599619040711057664,-16
599619040718744448,-16
599619040726431104,-18
599619040734117760,-14
599619040741804544,-11
599619040749491200,-14
599619040757177984,-9
599619040764864640,-7
599619040772551296,-4
599619040780238080,-2
599619040787924736,0
599619040795611392,0
599619040803298176,2
599619040810984832,4
599619040818671616,4
599619040826358272,4
599619040834044928,9
599619040841731712,14
599619040849418368,14
599619040857105024,9
599619040864791808,11
599619040872478464,16
599619040880165248,14
599619040887851904,4
599619040895538560,4
599619040903225344,9
599619040910912000,9
599619040918598656,7
599619040926285440,4
599619040933972096,0
599619040941658880,-2
599619040949345536,0
599619040957032192,2
599619040964718976,0
599619040972405632,-4
599619040980092288,-7
599619040987779072,-11
599619040995465728,-18
599619041003152512,-25
599619041010839214,-28
599619041018525824,-30
599619041026212480,-21
599619041033899264,7
599619041041585920,18
599619041049272576,18
599619041056959360,21
599619041064646016,7
599619041072332800,-14
599619041080019456,-11
599619041087706112,-4
599619041095392896,-4
599619041103079552,-4
599619041110766208,-2
599619041118452992,2
599619041126139648,9
599619041133826432,9
599619041141513088,-39
599619041149199744,-140
599619041156886528,-138
599619041164573184,135
599619041172259840,526
599619041179946624,582
599619041187633280,161
599619041195320064,-191
599619041203006720,-145
599619041210693376,-18
599619041218380160,14
599619041226066816,32
599619041233753472,25
599619041241440256,11
599619041249126912,18
599619041256813696,28
599619041264500352,28
599619041272187008,30
599619041279873792,37
599619041287560448,39
599619041295247104,42
599619041302933888,44
599619041310620544,46
599619041318307328,51
599619041325993984,56
599619041333680640,58
599619041341367424,63
599619041349054080,70
599619041356740736,77
599619041364427520,81
599619041372114176,86
599619041379800960,88
599619041387487616,100
599619041395174272,109
599619041402861056,112
599619041410547712,112
599619041418234368,109
599619041425921152,105
599619041433607808,95
599619041441294592,74
599619041448981248,49
599619041456667904,23
599619041464354688,2
599619041472041344,-11
599619041479728000,-16
599619041487414784,-21
599619041495101440,-25
599619041502788224,-25
599619041510474880,-21
599619041518161536,-16
599619041525848320,-14
599619041533534976,-18
599619041541221632,-16
599619041548908416,-9
599619041556595072,-4
599619041564281856,-4
599619041571968593,-2
599619041579655168,0
599619041587341696,2
599619041595028352,9
599619041602714880,11
599619041610401408,16
599619041618087936,18
599619041625774592,18
599619041633461120,21
599619041641147648,23
599619041648834304,21
599619041656520832,21
599619041664207360,23
599619041671893888,23
599619041679580544,18
599619041687267072,18
599619041694953600,23
599619041702640256,21
599619041710326784,18
599619041718013312,25
599619041725699840,25
599619041733386496,21
599619041741073024,23
599619041748759552,28
599619041756446208,28
599619041764132736,23
599619041771819264,25
599619041779505792,28
599619041787192448,28
599619041794878976,28
599619041802565504,28
599619041810252160,30
599619041817938688,30
599619041825625216,30
599619041833311744,28
599619041840998400,28
599619041848684928,28
599619041856371456,32
599619041864058112,39
599619041871744640,51
599619041879431168,112
599619041887117696,145
599619041894804352,53
599619041902490880,2
599619041910177408,35
599619041917864064,2
599619041925550592,-42
599619041933237120,4
599619041940923648,51
599619041948610304,28
599619041956296832,7
599619041963983360,16
599619041971670016,7
599619041979356544,-4
599619041987043072,14
599619041994729600,18
599619042002416256,0
599619042010102784,0
599619042017789312,11
599619042025475968,-11
599619042033162496,-105
599619042040849024,-159
599619042048535552,37
599619042056222208,442
599619042063908736,659
599619042071595264,357
599619042079281920,-140
599619042086968448,-271
599619042094654976,-116
599619042102341504,-7
599619042110028160,39
599619042117714688,46
599619042125401216,16
599619042133087802,7
599619042140774144,16
599619042148460544,23
599619042156146944,28
599619042163833472,28
599619042171519872,30
599619042179206272,42
599619042186892672,51
599619042194579072,49
599619042202265600,51
599619042209952000,63
599619042217638400,77
599619042225324800,77
599619042233011200,77
599619042240697728,88
599619042248384128,100
599619042256070528,105
599619042263756928,107
599619042271443328,116
599619042279129856,121
599619042286816256,114
599619042294502656,124
599619042302189056,147
599619042309875456,170
599619042317561984,205
599619042325248384,203
599619042332934784,145
599619042340621184,88
599619042348307584,32
599619042355993984,-23
599619042363680512,-25
599619042371366912,-37
599619042379053312,-119
599619042386739712,-119
599619042394426112,-37
599619042402112640,-30
599619042409799040,-51
599619042417485440,-25
599619042425171840,-9
599619042432858240,-23
599619042440544768,-21
599619042448231168,0
599619042455917568,9
599619042463603968,2
599619042471290368,2
599619042478976896,4
599619042486663296,2
599619042494349696,9
599619042502036096,21
599619042509722496,14
599619042517409024,23
599619042525095424,46
599619042532781824,28
599619042540468224,-2
599619042548154624,7
599619042555841152,14
599619042563527552,-7
599619042571213952,-4
599619042578900352,14
599619042586586752,11
599619042594273280,9
599619042601959680,14
599619042609646080,14
599619042617332480,21
599619042625018880,32
599619042632705408,23
599619042640391808,9
599619042648078208,21
599619042655764608,30
599619042663451008,25
599619042671137536,18
599619042678823936,0
599619042686510336,-2
599619042694196833,2
599619042701883520,0
599619042709570176,25
599619042717256960,53
599619042724943616,51
599619042732630272,42
599619042740317056,37
599619042748003712,32
599619042755690496,25
599619042763377152,9
599619042771063808,2
599619042778750592,9
599619042786437248,9
599619042794123904,4
599619042801810688,16
599619042809497344,23
599619042817184128,7
599619042824870784,-58
599619042832557440,-142
599619042840244224,-58
599619042847930880,283
599619042855617536,573
599619042863304320,388
599619042870990976,-119
599619042878677760,-313
599619042886364416,-159
599619042894051072,-67
599619042901737856,-11
599619042909424512,77
599619042917111168,56
599619042924797952,4
599619042932484608,30
599619042940171392,56
599619042947858048,37
599619042955544704,35
599619042963231488,53
599619042970918144,60
599619042978604800,53
599619042986291584,58
599619042993978240,70
599619043001665024,72
599619043009351680,81
599619043017038336,95
599619043024725120,84
599619043032411776,79
599619043040098432,105
599619043047785216,119
599619043055471872,121
599619043063158656,138
599619043070845312,156
599619043078531968,149
599619043086218752,131
599619043093905408,145
599619043101592064,140
599619043109278848,109
599619043116965504,138
599619043124652288,138
599619043132338944,88
599619043140025600,152
599619043147712384,74
599619043155399040,-187
599619043163085696,-81
599619043170772480,168
599619043178459136,-44
599619043186145920,-240
599619043193832576,-39
599619043201519232,30
599619043209206016,-67
599619043216892672,2
599619043224579328,65
599619043232266112,-11
599619043239952768,-16
599619043247639552,56
599619043255326212,114
599619043263012864,149
599619043270699520,39
599619043278386304,-65
599619043286072960,-37
599619043293759616,-25
599619043301446400,77
599619043309133056,159
599619043316819840,-39
599619043324506496,-145
599619043332193152,-11
599619043339879936,-18
599619043347566592,-105
599619043355253248,-79
599619043362940032,0
599619043370626688,14
599619043378313472,-91
599619043386000128,-131
599619043393686784,-53
599619043401373568,-32
599619043409060224,-60
599619043416746880,-39
599619043424433664,39
599619043432120320,14
599619043439807104,-102
599619043447493760,-74
599619043455180416,-70
599619043462867200,-142
599619043470553856,-39
599619043478240512,88
599619043485927296,0
599619043493613952,-149
599619043501300736,-74
599619043508987392,77
599619043516674048,65
599619043524360832,2
599619043532047488,-133
599619043539734144,-243
599619043547420928,-135
599619043555107584,-32
599619043562794368,-30
599619043570481024,16
599619043578167680,37
599619043585854464,-7
599619043593541120,11
599619043601227776,7
599619043608914560,-30
599619043616601216,-11
599619043624288000,-63
599619043631974656,-63
599619043639661312,39
599619043647348096,28
599619043655034752,-35
599619043662721408,-49
599619043670408192,-102
599619043678094848,-91
599619043685781632,194
599619043693468288,563
599619043701154944,566
599619043708841728,105
599619043716528384,-257
599619043724215040,-173
599619043731901824,-42
599619043739588480,-9
599619043747275264,67
599619043754961920,35
599619043762648576,-2
599619043770335360,109
599619043778022016,84
599619043785708672,-42
599619043793395456,51
599619043801082112,102
599619043808768896,14
599619043816455595,95
599619043824142208,126
599619043831828864,-44
599619043839515648,-35
599619043847202304,98
599619043854888960,86
599619043862575744,67
599619043870262400,109
599619043877949184,93
599619043885635840,70
599619043893322496,126
599619043901009280,166
599619043908695936,142
599619043916382592,107
599619043924069376,88
599619043931756032,102
599619043939442816,152
599619043947129472,212
599619043954816128,184
599619043962502912,49
599619043970189568,11
599619043977876224,63
599619043985563008,32
599619043993249664,-25
599619044000936448,-18
599619044008623104,30
599619044016309760,65
599619044023996544,9
599619044031683200,-88
599619044039369856,-74
599619044047056640,2
599619044054743296,4
599619044062430080,-11
599619044070116736,21
599619044077803392,35
599619044085490176,7
599619044093176832,18
599619044100863488,58
599619044108550272,91
599619044116236928,86
599619044123923712,2
599619044131610368,-42
599619044139297024,14
599619044146983808,46
599619044154670464,37
599619044162357120,58
599619044170043904,65
599619044177730560,28
599619044185417344,30
599619044193104000,56
599619044200790656,28
599619044208477440,25
599619044216164096,58
599619044223850752,46
599619044231537536,53
599619044239224192,114
599619044246910976,102
599619044254597632,7
599619044262284288,-4
599619044269971072,35
599619044277657728,28
599619044285344384,30
599619044293031168,39
599619044300717824,35
599619044308404608,46
599619044316091264,58
599619044323777920,67
599619044331464704,119
599619044339151360,93
599619044346838016,-23
599619044354524800,-21
599619044362211456,65
599619044369898240,44
599619044377584974,-2
599619044385271680,14
599619044392958336,44
599619044400645120,49
599619044408331776,46
599619044416018432,49
599619044423705216,2
599619044431391872,-95
599619044439078656,-105
599619044446765312,72
599619044454451968,397
599619044462138752,594
599619044469825408,273
599619044477512064,-238
599619044485198848,-297
599619044492885504,-84
599619044500572288,9
599619044508258944,56
599619044515945600,58
599619044523632384,28
599619044531319040,42
599619044539005696,42
599619044546692480,37
599619044554379136,56
599619044562065920,58
599619044569752576,56
599619044577439232,77
599619044585126016,84
599619044592812672,88
599619044600499328,102
599619044608186112,109
599619044615872768,105
599619044623559552,86
599619044631246208,100
599619044638932864,145
599619044646619648,145
599619044654306304,145
599619044661992960,173
599619044669679744,182
599619044677366400,177
599619044685053184,198
599619044692739840,201
599619044700426496,177
599619044708113280,173
599619044715799936,170
599619044723486592,140
599619044731173376,109
599619044738860032,88
599619044746546816,53
599619044754233472,14
599619044761920128,16
599619044769606912,32
599619044777293568,11
599619044784980224,-7
599619044792667008,18
599619044800353664,37
599619044808040448,14
599619044815727104,11
599619044823413760,37
599619044831100544,37
599619044838787200,30
599619044846473856,42
599619044854160640,53
599619044861847296,46
599619044869534080,30
599619044877220736,44
599619044884907392,74
599619044892594176,72
599619044900280832,58
599619044907967488,70
599619044915654272,70
599619044923340928,56
599619044931027712,60
599619044938714353,70
599619044946401024,70
599619044954087680,70
599619044961774464,67
599619044969461120,70
599619044977147776,79
599619044984834560,81
599619044992521216,77
599619045000208000,79
599619045007894656,74
599619045015581312,56
599619045023268096,70
599619045030954752,88
599619045038641408,58
599619045046328192,56
599619045054014848,98
599619045061701632,107
599619045069388288,100
599619045077074944,98
599619045084761728,84
599619045092448384,72
599619045100135040,79
599619045107821824,81
599619045115508480,72
599619045123195264,72
599619045130881920,67
599619045138568576,56
599619045146255360,72
599619045153942016,84
599619045161628672,21
599619045169315456,-84
599619045177002112,-37
599619045184688896,250
599619045192375552,570
599619045200062208,533
599619045207748992,88
599619045215435648,-208
599619045223122304,-105
599619045230809088,18
599619045238495744,65
599619045246182528,131
599619045253869184,133
599619045261555840,100
599619045269242624,102
599619045276929280,105
599619045284615936,102
599619045292302720,114
599619045299989376,116
599619045307676160,116
599619045315362816,124
599619045323049472,128
599619045330736256,128
599619045338422912,140
599619045346109568,147
599619045353796352,147
599619045361483008,149
599619045369169792,159
599619045376856448,156
599619045384543104,156
599619045392229888,177
599619045399916544,189
599619045407603200,189
599619045415289984,203
599619045422976640,219
599619045430663424,212
599619045438350080,196
599619045446036736,191
599619045453723520,182
599619045461410176,149
599619045469096832,105
599619045476783616,77
599619045484470272,60
599619045492157056,39
599619045499843732,28
599619045507530368,23
599619045515217024,18
599619045522903808,18
599619045530590464,21
599619045538277120,23
599619045545963904,25
599619045553650560,21
599619045561337344,25
599619045569024000,39
599619045576710656,46
599619045584397440,44
599619045592084096,46
599619045599770752,51
599619045607457536,46
599619045615144192,56
599619045622830976,65
599619045630517632,49
599619045638204288,39
599619045645891072,65
599619045653577728,72
599619045661264384,60
599619045668951168,67
599619045676637824,72
599619045684324608,58
599619045692011264,60
599619045699697920,72
599619045707384704,67
599619045715071360,65
599619045722758016,70
599619045730444800,70
599619045738131456,65
599619045745818240,60
599619045753504896,65
599619045761191552,72
599619045768878336,65
599619045776564992,60
599619045784251648,67
599619045791938432,67
599619045799625088,60
599619045807311872,63
599619045814998528,65
599619045822685184,58
599619045830371968,58
599619045838058624,74
599619045845745280,88
599619045853432064,93
599619045861118720,98
599619045868805504,86
599619045876492160,65
599619045884178816,58
599619045891865600,79
599619045899552256,86
599619045907238912,70
599619045914925696,65
599619045922612352,67
599619045930299136,65
599619045937985792,65
599619045945672448,30
599619045953359232,-58
599619045961045888,-86
599619045968732544,126
599619045976419328,500
599619045984105984,638
599619045991792768,285
599619045999479424,-145
599619046007166080,-161
599619046014852864,-9
599619046022539520,39
599619046030226176,86
599619046037912960,107
599619046045599616,74
599619046053286400,74
599619046060973111,91
599619046068659712,86
599619046076346368,81
599619046084033152,88
599619046091719808,95
599619046099406464,91
599619046107093248,88
599619046114779904,95
599619046122466688,107
599619046130153344,112
599619046137840000,105
599619046145526784,112
599619046153213440,124
599619046160900096,119
599619046168586880,126
599619046176273536,142
599619046183960320,147
599619046191646976,147
599619046199333632,161
599619046207020416,163
599619046214707072,154
599619046222393728,156
599619046230080512,161
599619046237767168,147
599619046245453952,131
599619046253140608,102
599619046260827264,63
599619046268514048,35
599619046276200704,23
599619046283887360,11
599619046291574144,2
599619046299260800,-4
599619046306947584,-4
599619046314634240,9
599619046322320896,4
599619046330007680,-4
599619046337694336,4
599619046345380992,11
599619046353067776,4
599619046360754432,11
599619046368441216,18
599619046376127872,7
599619046383814528,7
599619046391501312,30
599619046399187968,37
599619046406874624,28
599619046414561408,28
599619046422248064,28
599619046429934848,23
599619046437621504,28
599619046445308160,42
599619046452994944,51
599619046460681600,39
599619046468368256,23
599619046476055040,32
599619046483741696,65
599619046491428480,81
599619046499115136,77
599619046506801792,133
599619046514488576,236
599619046522175232,133
599619046529861888,-119
599619046537548672,-126
599619046545235328,25
599619046552922112,39
599619046560608768,11
599619046568295424,46
599619046575982208,65
599619046583668864,60
599619046591355520,63
599619046599042304,60
599619046606728960,63
599619046614415744,53
599619046622102490,35
599619046629789184,49
599619046637475840,51
599619046645162624,32
599619046652849280,30
599619046660535936,35
599619046668222720,44
599619046675909376,67
599619046683596160,91
599619046691282816,42
599619046698969472,-2
599619046706656256,79
599619046714342912,86
599619046722029568,21
599619046729716352,11
599619046737403008,-42
599619046745089792,-51
599619046752776448,21
599619046760463104,32
599619046768149888,32
599619046775836544,63
599619046783523200,35
599619046791209984,-28
599619046798896640,-63
599619046806583424,-119
599619046814270080,-58
599619046821956736,273
599619046829643520,610
599619046837330176,491
599619046845016832,-14
599619046852703616,-278
599619046860390272,-142
599619046868077056,-16
599619046875763712,42
599619046883450368,88
599619046891137152,49
599619046898823808,30
599619046906510464,70
599619046914197248,74
599619046921883904,81
599619046929570688,109
599619046937257344,63
599619046944944000,2
599619046952630784,39
599619046960317440,98
599619046968004096,93
599619046975690880,77
599619046983377536,88
599619046991064320,107
599619046998750976,102
599619047006437632,112
599619047014124416,135
599619047021811072,133
599619047029497728,133
599619047037184512,191
599619047044871168,259
599619047052557952,233
599619047060244608,135
599619047067931264,72
599619047075618048,72
599619047083304704,65
599619047090991360,67
599619047098678144,112
599619047106364800,124
599619047114051584,135
599619047121738240,177
599619047129424896,119
599619047137111680,166
599619047144798336,350
599619047152484992,79
599619047160171776,-390
599619047167858432,-287
599619047175545216,-51
599619047183231873,-126
599619047190918272,-79
599619047198604672,46
599619047206291072,2
599619047213977600,77
599619047221664000,98
599619047229350400,-93
599619047237036800,-2
599619047244723200,107
599619047252409728,-105
599619047260096128,-74
599619047267782528,109
599619047275468928,-65
599619047283155328,-226
599619047290841856,-18
599619047298528256,173
599619047306214656,215
599619047313901056,336
599619047321587456,215
599619047329273984,-311
599619047336960384,-409
599619047344646784,-23
599619047352333184,9
599619047360019584,-149
599619047367706112,-60
599619047375392512,44
599619047383078912,56
599619047390765312,30
599619047398451712,-35
599619047406138112,112
599619047413824640,343
599619047421511040,42
599619047429197440,-294
599619047436883840,-60
599619047444570240,42
599619047452256768,-109
599619047459943168,-65
599619047467629568,18
599619047475315968,-7
599619047483002368,-18
599619047490688896,4
599619047498375296,16
599619047506061696,30
599619047513748096,32
599619047521434496,35
599619047529121024,49
599619047536807424,63
599619047544493824,145
599619047552180224,161
599619047559866624,-102
599619047567553152,-308
599619047575239552,-189
599619047582925952,23
599619047590612352,285
599619047598298752,498
599619047605985280,226
599619047613671680,-276
599619047621358080,-315
599619047629044480,-37
599619047636730880,116
599619047644417408,84
599619047652103808,88
599619047659790208,212
599619047667476608,30
599619047675163008,-266
599619047682849536,-102
599619047690535936,98
599619047698222336,28
599619047705908736,2
599619047713595136,42
599619047721281664,53
599619047728968064,63
599619047736654464,70
599619047744340908,79
599619047752027392,95
599619047759713920,154
599619047767400576,163
599619047775087104,37
599619047782773632,63
599619047790460160,248
599619047798146816,166
599619047805833344,-28
599619047813519872,70
599619047821206528,196
599619047828893056,145
599619047836579584,121
599619047844266112,149
599619047851952768,156
599619047859639296,140
599619047867325824,93
599619047875012480,63
599619047882699008,44
599619047890385536,-28
599619047898072064,-77
599619047905758720,2
599619047913445248,102
599619047921131776,-16
599619047928818432,-219
599619047936504960,-170
599619047944191488,-56
599619047951878016,-51
599619047959564672,-39
599619047967251200,-30
599619047974937728,-44
599619047982624384,0
599619047990310912,39
599619047997997440,-30
599619048005683968,-39
599619048013370624,7
599619048021057152,-63
599619048028743680,-74
599619048036430336,2
599619048044116864,2
599619048051803392,-18
599619048059489920,-11
599619048067176576,-7
599619048074863104,-2
599619048082549632,9
599619048090236288,18
599619048097922816,16
599619048105609344,4
599619048113295872,-44
599619048120982528,-70
599619048128669056,7
599619048136355584,39
599619048144042240,-42
599619048151728768,-46
599619048159415296,21
599619048167101824,25
599619048174788480,9
599619048182475008,30
599619048190161536,37
599619048197848192,4
599619048205534720,-9
599619048213221248,-7
599619048220907776,-21
599619048228594432,-32
599619048236280960,-9
599619048243967488,21
599619048251654144,9
599619048259340672,-23
599619048267027200,-28
599619048274713728,-51
599619048282400384,-145
599619048290086912,-166
599619048297773440,70
599619048305460113,451
599619048313146752,556
599619048320833408,159
599619048328520192,-269
599619048336206848,-255
599619048343893504,-91
599619048351580288,-44
599619048359266944,-2
599619048366953728,11
599619048374640384,-21
599619048382327040,-18
599619048390013824,-2
599619048397700480,-9
599619048405387136,-11
599619048413073920,-4
599619048420760576,-4
599619048428447360,0
599619048436134016,9
599619048443820672,14
599619048451507456,4
599619048459194112,14
599619048466880768,49
599619048474567552,53
599619048482254208,32
599619048489940992,49
599619048497627648,79
599619048505314304,79
599619048513001088,72
599619048520687744,88
599619048528374400,105
599619048536061184,105
599619048543747840,100
599619048551434624,100
599619048559121280,95
599619048566807936,86
599619048574494720,65
599619048582181376,35
599619048589868032,7
599619048597554816,-16
599619048605241472,-37
599619048612928256,-37
599619048620614912,-28
599619048628301568,-28
599619048635988352,-39
599619048643675008,-44
599619048651361664,-35
599619048659048448,-25
599619048666735104,-25
599619048674421888,-21
599619048682108544,-14
599619048689795200,-14
599619048697481984,-18
599619048705168640,-16
599619048712855296,-9
599619048720542080,-4
599619048728228736,-2
599619048735915520,0
599619048743602176,2
599619048751288832,7
599619048758975616,18
599619048766662272,14
599619048774348928,-7
599619048782035712,0
599619048789722368,14
599619048797409152,9
599619048805095808,2
599619048812782464,9
599619048820469248,14
599619048828155904,9
599619048835842560,4
599619048843529344,7
599619048851216000,2
599619048858902784,-7
599619048866589492,0
599619048874276096,0
599619048881962752,2
599619048889649536,35
599619048897336192,51
599619048905022848,35
599619048912709632,25
599619048920396288,21
599619048928083072,9
599619048935769728,2
599619048943456384,16
599619048951143168,21
599619048958829824,11
599619048966516480,11
599619048974203264,18
599619048981889920,16
599619048989576704,9
599619048997263360,-46
599619049004950016,-140
599619049012636800,-95
599619049020323456,196
599619049028010112,531
599619049035696896,507
599619049043383552,81
599619049051070336,-205
599619049058756992,-116
599619049066443648,0
599619049074130432,21
599619049081817088,37
599619049089503744,30
599619049097190528,9
599619049104877184,14
599619049112563968,25
599619049120250624,23
599619049127937280,35
599619049135624064,44
599619049143310720,32
599619049150997376,35
599619049158684160,49
599619049166370816,46
599619049174057600,44
599619049181744256,56
599619049189430912,58
599619049197117696,60
599619049204804352,74
599619049212491008,81
599619049220177792,77
599619049227864448,86
599619049235551232,100
599619049243237888,102
599619049250924544,107
599619049258611328,114
599619049266297984,109
599619049273984640,105
599619049281671424,102
599619049289358080,86
599619049297044864,63
599619049304731520,37
599619049312418176,11
599619049320104960,-9
599619049327791616,-25
599619049335478272,-32
599619049343165056,-32
599619049350851712,-32
599619049358538496,-32
599619049366225152,-32
599619049373911808,-30
599619049381598592,-25
599619049389285248,-23
599619049396971904,-18
599619049404658688,-14
599619049412345344,-11
599619049420032128,-11
599619049427718871,-9
599619049435405568,-9
599619049443092224,-7
599619049450779008,-2
599619049458465664,0
599619049466152320,0
599619049473839104,-2
599619049481525760,0
599619049489212544,2
599619049496899200,4
599619049504585856,7
599619049512272640,4
599619049519959296,4
599619049527645952,9
599619049535332736,7
599619049543019392,9
599619049550706176,9
599619049558392832,11
599619049566079488,14
599619049573766272,16
599619049581452928,14
599619049589139584,11
599619049596826368,2
599619049604513024,-4
599619049612199808,4
599619049619886464,28
599619049627573120,44
599619049635259904,49
599619049642946560,63
599619049650633216,53
599619049658320000,18
599619049666006656,18
599619049673693440,35
599619049681380096,25
599619049689066752,25
599619049696753536,37
599619049704440192,35
599619049712126848,32
599619049719813632,35
599619049727500288,7
599619049735187072,-72
599619049742873728,-126
599619049750560384,11
599619049758247168,367
599619049765933824,638
599619049773620480,439
599619049781307264,-32
599619049788993920,-196
599619049796680704,-63
599619049804367360,23
599619049812054016,39
599619049819740800,44
599619049827427456,28
599619049835114112,21
599619049842800896,32
599619049850487552,39
599619049858174336,39
599619049865860992,44
599619049873547648,49
599619049881234432,44
599619049888921088,39
599619049896607744,46
599619049904294528,65
599619049911981184,65
599619049919667968,56
599619049927354624,67
599619049935041280,77
599619049942728064,77
599619049950414720,81
599619049958101376,93
599619049965788160,98
599619049973474816,105
599619049981161600,112
599619049988848254,112
599619049996534656,112
599619050004221056,114
599619050011907328,109
599619050019593728,98
599619050027280128,84
599619050034966400,63
599619050042652800,32
599619050050339200,7
599619050058025472,-7
599619050065711872,-16
599619050073398272,-25
599619050081084544,-30
599619050088770944,-28
599619050096457216,-28
599619050104143616,-28
599619050111830016,-23
599619050119516288,-16
599619050127202688,-16
599619050134889088,-16
599619050142575360,-11
599619050150261760,-4
599619050157948160,-4
599619050165634432,-4
599619050173320832,0
599619050181007232,4
599619050188693504,4
599619050196379904,7
599619050204066304,7
599619050211752576,4
599619050219438976,7
599619050227125376,11
599619050234811648,11
599619050242498048,9
599619050250184448,14
599619050257870720,14
599619050265557120,14
599619050273243392,14
599619050280929792,21
599619050288616192,18
599619050296302464,14
599619050303988864,14
599619050311675264,16
599619050319361536,18
599619050327047936,23
599619050334734336,23
599619050342420608,18
599619050350107008,14
599619050357793408,11
599619050365479680,4
599619050373166080,7
599619050380852480,32
599619050388538752,49
599619050396225152,53
599619050403911552,60
599619050411597824,51
599619050419284224,28
599619050426970624,21
599619050434656896,28
599619050442343296,25
599619050450029568,25
599619050457715968,28
599619050465402368,30
599619050473088640,32
599619050480775040,28
599619050488461440,2
599619050496147712,-79
599619050503834112,-135
599619050511520512,46
599619050519206784,453
599619050526893184,690
599619050534579584,404
599619050542265856,-102
599619050549952202,-229
599619050557639040,-72
599619050565325824,9
599619050573012608,37
599619050580699392,51
599619050588386176,28
599619050596072960,25
599619050603759744,42
599619050611446400,42
599619050619133184,37
599619050626819968,44
599619050634506752,53
599619050642193536,56
599619050649880320,51
599619050657567104,53
599619050665253888,65
599619050672940672,72
599619050680627456,74
599619050688314240,79
599619050696001024,93
599619050703687680,100
599619050711374464,102
599619050719061248,112
599619050726748032,126
599619050734434816,135
599619050742121600,140
599619050749808384,145
599619050757495168,145
599619050765181952,131
599619050772868736,124
599619050780555520,128
599619050788242304,114
599619050795928960,74
599619050803615744,44
599619050811302528,30
599619050818989312,4
599619050826676096,-21
599619050834362880,-28
599619050842049664,-35
599619050849736448,-44
599619050857423232,-37
599619050865110016,-32
599619050872796800,-37
599619050880483584,-37
599619050888170240,-32
599619050895857024,-30
599619050903543808,-25
599619050911230592,-23
599619050918917376,-21
599619050926604160,-14
599619050934290944,-16
599619050941977728,-23
599619050949664512,-16
599619050957351296,-7
599619050965038080,-4
599619050972724864,-2
599619050980411520,-4
599619050988098304,-7
599619050995785088,-2
599619051003471872,0
599619051011158656,-2
599619051018845440,2
599619051026532224,-2
599619051034219008,-4
599619051041905792,0
599619051049592576,-7
599619051057279360,-16
599619051064966144,-7
599619051072652928,7
599619051080339584,21
599619051088026368,39
599619051095713152,46
599619051103399936,37
599619051111086668,18
599619051118773504,7
599619051126460288,7
599619051134147072,11
599619051141833856,18
599619051149520640,16
599619051157207424,11
599619051164894208,21
599619051172580864,28
599619051180267648,11
599619051187954432,-32
599619051195641216,-114
599619051203328000,-116
599619051211014784,124
599619051218701568,486
599619051226388352,524
599619051234075136,100
599619051241761920,-238
599619051249448704,-168
599619051257135488,-44
599619051264822144,0
599619051272508928,58
599619051280195712,58
599619051287882496,23
599619051295569280,32
599619051303256064,46
599619051310942848,42
599619051318629632,49
599619051326316416,53
599619051334003200,53
599619051341689984,56
599619051349376768,60
599619051357063424,63
599619051364750208,67
599619051372436992,70
599619051380123776,70
599619051387810560,79
599619051395497344,91
599619051403184128,88
599619051410870912,88
599619051418557696,102
599619051426244480,109
599619051433931264,109
599619051441618048,107
599619051449304704,105
599619051456991488,109
599619051464678272,102
599619051472365056,86
599619051480051840,74
599619051487738624,58
599619051495425408,32
599619051503112192,11
599619051510798976,0
599619051518485760,-18
599619051526172544,-28
599619051533859328,-21
599619051541545984,-14
599619051549232768,-16
599619051556919552,-16
599619051564606336,-16
599619051572293120,-16
599619051579979904,-11
599619051587666688,0
599619051595353472,0
599619051603040256,-4
599619051610727040,9
599619051618413824,9
599619051626100608,2
599619051633787392,7
599619051641474048,14
599619051649160832,11
599619051656847616,14
599619051664534400,14
599619051672221134,16
599619051679907712,18
599619051687594240,18
599619051695280640,18
599619051702967168,18
599619051710653696,16
599619051718340224,21
599619051726026624,23
599619051733713152,16
599619051741399680,21
599619051749086208,25
599619051756772608,14
599619051764459136,14
599619051772145664,25
599619051779832192,11
599619051787518592,0
599619051795205120,18
599619051802891648,44
599619051810578176,49
599619051818264576,49
599619051825951104,56
599619051833637632,44
599619051841324160,28
599619051849010560,28
599619051856697088,30
599619051864383616,30
599619051872070144,37
599619051879756544,32
599619051887443072,21
599619051895129600,28
599619051902816000,32
599619051910502528,-14
599619051918189056,-109
599619051925875584,-114
599619051933561984,124
599619051941248512,477
599619051948935040,533
599619051956621568,149
599619051964307968,-187
599619051971994496,-154
599619051979681024,-25
599619051987367552,21
599619051995053952,35
599619052002740480,16
599619052010427008,4
599619052018113536,11
599619052025799936,18
599619052033486464,21
599619052041172992,18
599619052048859520,14
599619052056545920,11
599619052064232448,16
599619052071918976,23
599619052079605376,25
599619052087291904,28
599619052094978432,28
599619052102664960,25
599619052110351360,32
599619052118037888,49
599619052125724416,51
599619052133410944,49
599619052141097344,56
599619052148783872,63
599619052156470400,63
599619052164156928,65
599619052171843328,65
599619052179529856,63
599619052187216384,58
599619052194902912,51
599619052202589312,37
599619052210275840,28
599619052217962368,14
599619052225648896,-16
599619052233335252,-35
599619052241021952,-28
599619052248708608,-32
599619052256395392,-42
599619052264082048,-44
599619052271768704,-44
599619052279455488,-39
599619052287142144,-35
599619052294828928,-37
599619052302515584,-35
599619052310202240,-28
599619052317889024,-25
599619052325575680,-25
599619052333262336,-23
599619052340949120,-21
599619052348635776,-11
599619052356322560,-4
599619052364009216,-11
599619052371695872,-16
599619052379382656,-14
599619052387069312,-9
599619052394755968,-2
599619052402442752,0
599619052410129408,-4
599619052417816192,-9
599619052425502848,0
599619052433189504,7
599619052440876288,-4
599619052448562944,-9
599619052456249600,-2
599619052463936384,2
599619052471623040,0
599619052479309824,-4
599619052486996480,-18
599619052494683136,-25
599619052502369920,-14
599619052510056576,7
599619052517743232,25
599619052525430016,28
599619052533116672,35
599619052540803456,37
599619052548490112,14
599619052556176768,0
599619052563863552,4
599619052571550208,7
599619052579236864,4
599619052586923648,7
599619052594610304,9
599619052602297088,14
599619052609983744,11
599619052617670400,-2
599619052625357184,-53
599619052633043840,-135
599619052640730496,-95
599619052648417280,189
599619052656103936,526
599619052663790720,470
599619052671477376,23
599619052679164032,-224
599619052686850816,-114
599619052694537472,-9
599619052702224128,23
599619052709910912,44
599619052717597568,23
599619052725284352,16
599619052732971008,28
599619052740657664,23
599619052748344448,28
599619052756031104,37
599619052763717760,35
599619052771404544,35
599619052779091200,39
599619052786777984,42
599619052794464631,44
599619052802151296,49
599619052809837952,53
599619052817524736,56
599619052825211392,58
599619052832898048,58
599619052840584832,63
599619052848271488,70
599619052855958272,67
599619052863644928,72
599619052871331584,81
599619052879018368,74
599619052886705024,70
599619052894391680,72
599619052902078464,67
599619052909765120,56
599619052917451904,46
599619052925138560,30
599619052932825216,11
599619052940512000,-4
599619052948198656,-21
599619052955885312,-35
599619052963572096,-37
599619052971258752,-39
599619052978945536,-39
599619052986632192,-32
599619052994318848,-30
599619053002005632,-37
599619053009692288,-30
599619053017378944,-21
599619053025065728,-23
599619053032752384,-23
599619053040439168,-21
599619053048125824,-18
599619053055812480,-7
599619053063499264,-4
599619053071185920,-9
599619053078872576,-4
599619053086559360,-4
599619053094246016,-7
599619053101932800,-2
599619053109619456,-4
599619053117306112,-7
599619053124992896,-2
599619053132679552,0
599619053140366208,-2
599619053148052992,-2
599619053155739648,0
599619053163426432,2
599619053171113088,0
599619053178799744,2
599619053186486528,4
599619053194173184,-4
599619053201859840,-14
599619053209546624,-14
599619053217233280,-14
599619053224920064,2
599619053232606720,30
599619053240293376,37
599619053247980160,32
599619053255666816,30
599619053263353472,11
599619053271040256,2
599619053278726912,7
599619053286413696,7
599619053294100352,0
599619053301787008,9
599619053309473792,16
599619053317160448,9
599619053324847104,2
599619053332533888,-7
599619053340220544,-72
599619053347907328,-152
599619053355594010,-46
599619053363280640,299
599619053370967296,577
599619053378654080,388
599619053386340736,-86
599619053394027392,-245
599619053401714176,-98
599619053409400832,-9
599619053417087616,25
599619053424774272,42
599619053432460928,16
599619053440147712,11
599619053447834368,23
599619053455521024,16
599619053463207808,18
599619053470894464,35
599619053478581248,37
599619053486267904,28
599619053493954560,25
599619053501641344,37
599619053509328000,44
599619053517014656,39
599619053524701440,46
599619053532388096,58
599619053540074880,56
599619053547761536,58
599619053555448192,70
599619053563134976,74
599619053570821632,70
599619053578508288,72
599619053586195072,72
599619053593881728,72
599619053601568512,74
599619053609255168,67
599619053616941824,51
599619053624628608,49
599619053632315264,51
599619053640001920,32
599619053647688704,2
599619053655375360,-11
599619053663062144,-18
599619053670748800,-25
599619053678435456,-32
599619053686122240,-39
599619053693808896,-35
599619053701495552,-32
599619053709182336,-37
599619053716868992,-32
599619053724555776,-18
599619053732242432,-18
599619053739929088,-30
599619053747615872,-23
599619053755302528,-7
599619053762989184,-7
599619053770675968,-11
599619053778362624,-4
599619053786049408,-2
599619053793736064,-7
599619053801422720,-7
599619053809109504,-4
599619053816796160,-2
599619053824482816,2
599619053832169600,-2
599619053839856256,-9
599619053847543040,-9
599619053855229696,-2
599619053862916352,2
599619053870603136,-4
599619053878289792,-4
599619053885976448,2
599619053893663232,-7
599619053901349888,-21
599619053909036672,-9
599619053916723393,-4
599619053924410112,-18
599619053932096768,-21
599619053939783552,4
599619053947470208,23
599619053955156864,25
599619053962843648,28
599619053970530304,14
599619053978217088,-9
599619053985903744,-9
599619053993590400,-7
599619054001277184,-9
599619054008963840,-4
599619054016650496,-4
599619054024337280,-9
599619054032023936,-9
599619054039710720,-11
599619054047397376,-37
599619054055084032,-114
599619054062770816,-159
599619054070457472,32
599619054078144128,421
599619054085830912,608
599619054093517568,266
599619054101204352,-205
599619054108891008,-250
599619054116577664,-79
599619054124264448,-7
599619054131951104,35
599619054139637760,35
599619054147324544,4
599619054155011200,18
599619054162697984,30
599619054170384640,18
599619054178071296,28
599619054185758080,44
599619054193444736,39
599619054201131392,37
599619054208818176,46
599619054216504832,51
599619054224191616,60
599619054231878272,70
599619054239564928,70
599619054247251712,70
599619054254938368,84
599619054262625024,93
599619054270311808,91
599619054277998464,93
599619054285685248,107
599619054293371904,116
599619054301058560,112
599619054308745344,109
599619054316432000,119
599619054324118656,121
599619054331805440,107
599619054339492096,91
599619054347178880,74
599619054354865536,49
599619054362552192,32
599619054370238976,23
599619054377925632,-2
599619054385612288,-32
599619054393299072,-35
599619054400985728,-16
599619054408672512,-16
599619054416359168,-28
599619054424045824,-16
599619054431732608,-9
599619054439419264,-18
599619054447105920,-18
599619054454792704,-14
599619054462479360,-11
599619054470166144,-16
599619054477852772,-16
599619054485539456,-7
599619054493226112,4
599619054500912896,14
599619054508599552,7
599619054516286208,-4
599619054523972992,-2
599619054531659648,2
599619054539346432,-4
599619054547033088,-11
599619054554719744,-7
599619054562406528,4
599619054570093184,-2
599619054577779840,-18
599619054585466624,-11
599619054593153280,-4
599619054600840064,-11
599619054608526720,-4
599619054616213376,18
599619054623900160,32
599619054631586816,42
599619054639273472,42
599619054646960256,14
599619054654646912,-2
599619054662333696,0
599619054670020352,0
599619054677707008,4
599619054685393792,11
599619054693080448,0
599619054700767104,-4
599619054708453888,18
599619054716140544,9
599619054723827328,-74
599619054731513984,-147
599619054739200640,-70
599619054746887424,222
599619054754574080,549
599619054762260736,484
599619054769947520,-7
599619054777634176,-301
599619054785320960,-184
599619054793007616,-42
599619054800694272,14
599619054808381056,46
599619054816067712,32
599619054823754368,28
599619054831441152,35
599619054839127808,21
599619054846814592,25
599619054854501248,49
599619054862187904,49
599619054869874688,32
599619054877561344,35
599619054885248000,51
599619054892934784,53
599619054900621440,56
599619054908308224,74
599619054915994880,74
599619054923681536,58
599619054931368320,70
599619054939054976,95
599619054946741632,95
599619054954428416,88
599619054962115072,95
599619054969801856,98
599619054977488512,91
599619054985175168,91
599619054992861952,74
599619055000548608,51
599619055008235264,67
599619055015922048,84
599619055023608704,46
599619055031295488,7
599619055038982151,-2
599619055046668800,-18
599619055054355456,-37
599619055062042240,-44
599619055069728896,-53
599619055077415552,-53
599619055085102336,-46
599619055092788992,-51
599619055100475776,-44
599619055108162432,-21
599619055115849088,-28
599619055123535872,-32
599619055131222528,-14
599619055138909184,-16
599619055146595968,-25
599619055154282624,-16
599619055161969408,-11
599619055169656064,-11
599619055177342720,-9
599619055185029504,-14
599619055192716160,-21
599619055200402816,-16
599619055208089600,-2
599619055215776256,2
599619055223463040,-7
599619055231149696,-9
599619055238836352,-11
599619055246523136,-18
599619055254209792,-23
599619055261896448,-25
599619055269583232,-18
599619055277269888,7
599619055284956672,32
599619055292643328,37
599619055300329984,32
599619055308016768,21
599619055315703424,2
599619055323390080,-7
599619055331076864,-2
599619055338763520,11
599619055346450304,14
599619055354136960,2
599619055361823616,0
599619055369510400,0
599619055377197056,4
599619055384883712,-11
599619055392570496,-102
599619055400257152,-149
599619055407943936,63
599619055415630592,465
599619055423317248,615
599619055431004032,236
599619055438690688,-236
599619055446377344,-262
599619055454064128,-79
599619055461750784,-7
599619055469437568,37
599619055477124224,51
599619055484810880,23
599619055492497664,16
599619055500184320,35
599619055507870976,46
599619055515557760,39
599619055523244416,37
599619055530931200,46
599619055538617856,51
599619055546304512,51
599619055553991296,60
599619055561677952,63
599619055569364608,63
599619055577051392,74
599619055584738048,84
599619055592424832,91
599619055600111530,95
599619055607798912,93
599619055615486336,98
599619055623173760,109
599619055630861056,116
599619055638548480,107
599619055646235904,102
599619055653923328,107
599619055661610752,112
599619055669298176,102
599619055676985472,84
599619055684672896,70
599619055692360320,53
599619055700047744,28
599619055707735168,4
599619055715422464,-9
599619055723109888,-18
599619055730797312,-30
599619055738484736,-37
599619055746172160,-32
599619055753859584,-23
599619055761546880,-23
599619055769234304,-28
599619055776921728,-23
599619055784609152,-14
599619055792296576,-7
599619055799983872,-4
599619055807671296,-11
599619055815358720,-9
599619055823046144,-9
599619055830733568,-11
599619055838420992,-11
599619055846108288,-14
599619055853795712,-14
599619055861483136,-7
599619055869170560,-9
599619055876857984,-23
599619055884545280,-32
599619055892232704,-32
599619055899920128,-28
599619055907607552,-21
599619055915294976,-9
599619055922982400,4
599619055930669696,11
599619055938357120,4
599619055946044544,-14
599619055953731968,-28
599619055961419392,-25
599619055969106688,-25
599619055976794112,-30
599619055984481536,-30
599619055992168960,-30
599619055999856384,-25
599619056007543680,-21
599619056015231104,-35
599619056022918528,-81
599619056030605952,-159
599619056038293376,-133
599619056045980800,126
599619056053668096,430
599619056061355520,360
599619056069042944,-95
599619056076730368,-350
599619056084417792,-208
599619056092105088,-93
599619056099792512,-74
599619056107479936,21
599619056115167360,60
599619056122854784,4
599619056130542208,-4
599619056138229504,28
599619056145916928,32
599619056153604352,11
599619056161291774,4
599619056168977792,32
599619056176663808,49
599619056184349824,35
599619056192035840,37
599619056199721856,49
599619056207407872,46
599619056215093888,51
599619056222779904,63
599619056230465792,60
599619056238151808,58
599619056245837824,67
599619056253523840,74
599619056261209856,74
599619056268895872,77
599619056276581888,77
599619056284267904,70
599619056291953920,74
599619056299639936,70
599619056307325952,49
599619056315011968,28
599619056322697984,11
599619056330384000,-9
599619056338069888,-30
599619056345755904,-44
599619056353441920,-51
599619056361127936,-53
599619056368813952,-58
599619056376499968,-63
599619056384185984,-58
599619056391872000,-49
599619056399558016,-44
599619056407244032,-49
599619056414930048,-42
599619056422616064,-25
599619056430302080,-25
599619056437988096,-28
599619056445673984,-18
599619056453360000,-18
599619056461046016,-25
599619056468732032,-21
599619056476418048,-11
599619056484104064,-14
599619056491790080,-18
599619056499476096,-11
599619056507162112,-11
599619056514848128,-16
599619056522534144,-18
599619056530220160,-28
599619056537906176,-28
599619056545592192,-14
599619056553278208,-9
599619056560964096,-2
599619056568650112,18
599619056576336128,28
599619056584022144,18
599619056591708160,-7
599619056599394176,-16
599619056607080192,-9
599619056614766208,-11
599619056622452224,-7
599619056630138240,7
599619056637824256,0
599619056645510272,-9
599619056653196288,-2
599619056660882304,-9
599619056668568192,-72
599619056676254208,-145
599619056683940224,-53
599619056691626240,250
599619056699312256,505
599619056706998272,343
599619056714684288,-86
599619056722370288,-224
599619056730056960,-70
599619056737743616,2
599619056745430400,18
599619056753117056,42
599619056760803712,14
599619056768490496,-2
599619056776177152,25
599619056783863936,42
599619056791550592,25
599619056799237248,21
599619056806924032,32
599619056814610688,37
599619056822297344,32
599619056829984128,30
599619056837670784,39
599619056845357568,51
599619056853044224,49
599619056860730880,44
599619056868417664,51
599619056876104320,60
599619056883790976,65
599619056891477760,65
599619056899164416,63
599619056906851200,67
599619056914537856,74
599619056922224512,70
599619056929911296,56
599619056937597952,58
599619056945284608,58
599619056952971392,39
599619056960658048,25
599619056968344832,21
599619056976031488,0
599619056983718144,-18
599619056991404928,-18
599619056999091584,-23
599619057006778240,-37
599619057014465024,-30
599619057022151680,-14
599619057029838464,-16
599619057037525120,-18
599619057045211776,-14
599619057052898560,-14
599619057060585216,-16
599619057068271872,-11
599619057075958656,-9
599619057083645312,-7
599619057091332096,0
599619057099018752,4
599619057106705408,9
599619057114392192,9
599619057122078848,0
599619057129765504,-4
599619057137452288,-4
599619057145138944,-11
599619057152825728,-16
599619057160512384,-23
599619057168199040,-37
599619057175885824,-49
599619057183572480,-51
599619057191259136,-46
599619057198945920,-32
599619057206632576,-11
599619057214319360,-4
599619057222006016,-9
599619057229692672,-18
599619057237379456,-28
599619057245066112,-32
599619057252752768,-28
599619057260439552,-23
599619057268126208,-23
599619057275812992,-23
599619057283499671,-18
599619057291186048,-16
599619057298872448,-14
599619057306558848,-46
599619057314245376,-124
599619057321931776,-135
599619057329618176,70
599619057337304576,414
599619057344990976,512
599619057352677504,152
599619057360363904,-205
599619057368050304,-170
599619057375736704,-28
599619057383423104,14
599619057391109632,37
599619057398796032,30
599619057406482432,11
599619057414168832,37
599619057421855232,53
599619057429541760,37
599619057437228160,32
599619057444914560,30
599619057452600960,16
599619057460287360,28
599619057467973888,44
599619057475660288,42
599619057483346688,42
599619057491033088,56
599619057498719488,65
599619057506405888,63
599619057514092416,58
599619057521778816,60
599619057529465216,65
599619057537151616,65
599619057544838016,77
599619057552524544,81
599619057560210944,72
599619057567897344,70
599619057575583744,70
599619057583270144,63
599619057590956672,58
599619057598643072,46
599619057606329472,25
599619057614015872,11
599619057621702272,0
599619057629388800,-14
599619057637075200,-16
599619057644761600,-21
599619057652448000,-28
599619057660134400,-23
599619057667820928,-16
599619057675507328,-21
599619057683193728,-16
599619057690880128,-7
599619057698566528,-7
599619057706253056,-4
599619057713939456,0
599619057721625856,2
599619057729312256,2
599619057736998656,4
599619057744685184,9
599619057752371584,16
599619057760057984,18
599619057767744384,14
599619057775430784,14
599619057783117312,21
599619057790803712,21
599619057798490112,18
599619057806176512,18
599619057813862912,18
599619057821549440,14
599619057829235840,7
599619057836922240,7
599619057844608706,11
599619057852295296,23
599619057859981824,42
599619057867668480,56
599619057875355008,60
599619057883041536,46
599619057890728064,25
599619057898414720,21
599619057906101248,30
599619057913787776,30
599619057921474432,25
599619057929160960,30
599619057936847488,32
599619057944534016,30
599619057952220672,32
599619057959907200,14
599619057967593728,-60
599619057975280384,-119
599619057982966912,21
599619057990653440,374
599619057998339968,594
599619058006026624,329
599619058013713152,-121
599619058021399680,-201
599619058029086336,-39
599619058036772864,28
599619058044459392,53
599619058052145920,63
599619058059832576,39
599619058067519104,44
599619058075205632,58
599619058082892288,53
599619058090578816,49
599619058098265344,53
599619058105951872,58
599619058113638528,60
599619058121325056,67
599619058129011584,74
599619058136698240,79
599619058144384768,79
599619058152071296,81
599619058159757824,86
599619058167444480,95
599619058175131008,100
599619058182817536,102
599619058190504192,109
599619058198190720,114
599619058205877248,112
599619058213563776,114
599619058221250432,121
599619058228936960,112
599619058236623488,98
599619058244310144,100
599619058251996672,98
599619058259683200,70
599619058267369728,39
599619058275056384,23
599619058282742912,16
599619058290429440,2
599619058298116096,-11
599619058305802624,-16
599619058313489152,-14
599619058321175680,-18
599619058328862336,-23
599619058336548864,-9
599619058344235392,2
599619058351922048,-4
599619058359608576,-4
599619058367295104,7
599619058374981632,11
599619058382668288,11
599619058390354816,9
599619058398041344,16
599619058405727911,21
599619058413414528,18
599619058421101184,18
599619058428787968,28
599619058436474624,25
599619058444161280,18
599619058451848064,18
599619058459534720,18
599619058467221504,21
599619058474908160,23
599619058482594816,18
599619058490281600,14
599619058497968256,16
599619058505654912,9
599619058513341696,4
599619058521028352,16
599619058528715136,30
599619058536401792,42
599619058544088448,51
599619058551775232,53
599619058559461888,44
599619058567148544,25
599619058574835328,18
599619058582521984,21
599619058590208768,23
599619058597895424,28
599619058605582080,30
599619058613268864,23
599619058620955520,23
599619058628642176,25
599619058636328960,-4
599619058644015616,-88
599619058651702400,-135
599619058659389056,46
599619058667075712,432
599619058674762496,627
599619058682449152,304
599619058690135808,-159
599619058697822592,-208
599619058705509248,-63
599619058713196032,-16
599619058720882688,42
599619058728569344,72
599619058736256128,37
599619058743942784,42
599619058751629440,60
599619058759316224,49
599619058767002880,51
599619058774689664,60
599619058782376320,60
599619058790062976,63
599619058797749760,67
599619058805436416,74
599619058813123072,79
599619058820809856,79
599619058828496512,81
599619058836183296,86
599619058843869952,88
599619058851556608,98
599619058859243392,107
599619058866930048,107
599619058874616704,112
599619058882303488,124
599619058889990144,121
599619058897676928,109
599619058905363584,109
599619058913050240,107
599619058920737024,95
599619058928423680,86
599619058936110336,67
599619058943797120,32
599619058951483776,11
599619058959170560,-2
599619058966857290,-16
599619058974544000,-21
599619058982230656,-21
599619058989917312,-30
599619058997603840,-32
599619059005290496,-32
599619059012977152,-28
599619059020663808,-23
599619059028350464,-23
599619059036037120,-21
599619059043723648,-16
599619059051410304,-18
599619059059096960,-18
599619059066783616,-9
599619059074470272,2
599619059082156928,2
599619059089843456,0
599619059097530112,0
599619059105216768,0
599619059112903424,-2
599619059120590080,2
599619059128276736,2
599619059135963264,0
599619059143649920,-2
599619059151336576,0
599619059159023232,4
599619059166709888,0
599619059174396544,-2
599619059182083072,0
599619059189769728,2
599619059197456384,-2
599619059205143040,-4
599619059212829696,-11
599619059220516352,-11
599619059228202880,2
599619059235889536,23
599619059243576192,25
599619059251262848,28
599619059258949504,30
599619059266636160,14
599619059274322688,2
599619059282009344,9
599619059289696000,7
599619059297382656,2
599619059305069312,4
599619059312755968,9
599619059320442496,7
599619059328129152,2
599619059335815808,-2
599619059343502464,-51
599619059351189120,-131
599619059358875648,-65
599619059366562304,252
599619059374248960,547
599619059381935616,372
599619059389622272,-138
599619059397308928,-308
599619059404995456,-121
599619059412682112,-44
599619059420368768,-18
599619059428055424,74
599619059435742080,77
599619059443428736,32
599619059451115264,51
599619059458801920,70
599619059466488576,53
599619059474175232,51
599619059481861888,67
599619059489548544,77
599619059497235072,74
599619059504921728,74
599619059512608384,77
599619059520295040,79
599619059527981586,84
599619059535667968,86
599619059543354368,93
599619059551040640,107
599619059558727040,114
599619059566413440,105
599619059574099712,114
599619059581786112,142
599619059589472512,142
599619059597158784,121
599619059604845184,124
599619059612531584,126
599619059620217856,109
599619059627904256,93
599619059635590528,81
599619059643276928,58
599619059650963328,18
599619059658649600,-9
599619059666336000,-18
599619059674022400,-21
599619059681708672,-35
599619059689395072,-46
599619059697081472,-46
599619059704767744,-42
599619059712454144,-42
599619059720140544,-37
599619059727826816,-35
599619059735513216,-37
599619059743199616,-25
599619059750885888,-16
599619059758572288,-14
599619059766258688,-11
599619059773944960,-2
599619059781631360,2
599619059789317760,4
599619059797004032,4
599619059804690432,4
599619059812376704,4
599619059820063104,9
599619059827749504,11
599619059835435776,7
599619059843122176,9
599619059850808576,7
599619059858494848,2
599619059866181248,4
599619059873867648,4
599619059881553920,0
599619059889240320,-4
599619059896926720,0
599619059904612992,-2
599619059912299392,-7
599619059919985792,14
599619059927672064,44
599619059935358464,39
599619059943044864,30
599619059950731136,28
599619059958417536,16
599619059966103808,4
599619059973790208,9
599619059981476608,11
599619059989162880,9
599619059996849280,9
599619060004535680,11
599619060012221952,14
599619060019908352,9
599619060027594752,-25
599619060035281024,-114
599619060042967424,-135
599619060050653824,88
599619060058340096,449
599619060066026496,514
599619060073712896,119
599619060081399168,-243
599619060089085530,-198
599619060096772224,-67
599619060104458880,-32
599619060112145664,42
599619060119832320,70
599619060127518976,16
599619060135205760,14
599619060142892416,44
599619060150579200,35
599619060158265856,28
599619060165952512,39
599619060173639296,42
599619060181325952,35
599619060189012608,42
599619060196699392,53
599619060204386048,53
599619060212072832,53
599619060219759488,60
599619060227446144,67
599619060235132928,70
599619060242819584,74
599619060250506240,84
599619060258193024,88
599619060265879680,93
599619060273566464,102
599619060281253120,100
599619060288939776,93
599619060296626560,93
599619060304313216,88
599619060311999872,77
599619060319686656,60
599619060327373312,35
599619060335060096,4
599619060342746752,-16
599619060350433408,-28
599619060358120192,-37
599619060365806848,-46
599619060373493504,-53
599619060381180288,-49
599619060388866944,-32
599619060396553728,-35
599619060404240384,-46
599619060411927040,-42
599619060419613824,-35
599619060427300480,-37
599619060434987136,-32
599619060442673920,-25
599619060450360576,-23
599619060458047360,-21
599619060465734016,-14
599619060473420672,-2
599619060481107456,-4
599619060488794112,-11
599619060496480768,-4
599619060504167552,4
599619060511854208,2
599619060519540992,0
599619060527227648,0
599619060534914304,-2
599619060542601088,-4
599619060550287744,-7
599619060557974400,0
599619060565661184,4
599619060573347840,0
599619060581034624,0
599619060588721280,4
599619060596407936,2
599619060604094720,2
599619060611781376,4
599619060619468032,0
599619060627154816,0
599619060634841472,2
599619060642528256,-4
599619060650214913,-9
599619060657901312,-7
599619060665587712,-2
599619060673274112,11
599619060680960640,28
599619060688647040,30
599619060696333440,32
599619060704019840,30
599619060711706240,11
599619060719392768,0
599619060727079168,7
599619060734765568,11
599619060742451968,7
599619060750138368,2
599619060757824896,4
599619060765511296,14
599619060773197696,4
599619060780884096,-44
599619060788570496,-126
599619060796257024,-124
599619060803943424,100
599619060811629824,458
599619060819316224,549
599619060827002624,177
599619060834689152,-184
599619060842375552,-161
599619060850061952,-49
599619060857748352,-23
599619060865434752,23
599619060873121152,39
599619060880807680,14
599619060888494080,16
599619060896180480,28
599619060903866880,23
599619060911553280,28
599619060919239808,37
599619060926926208,35
599619060934612608,30
599619060942299008,39
599619060949985408,44
599619060957671936,44
599619060965358336,44
599619060973044736,51
599619060980731136,63
599619060988417536,65
599619060996104064,67
599619061003790464,74
599619061011476864,84
599619061019163264,91
599619061026849664,93
599619061034536192,98
599619061042222592,102
599619061049908992,98
599619061057595392,91
599619061065281792,84
599619061072968320,79
599619061080654720,58
599619061088341120,25
599619061096027520,-2
599619061103713920,-16
599619061111400448,-30
599619061119086848,-39
599619061126773248,-44
599619061134459648,-42
599619061142146048,-39
599619061149832576,-39
599619061157518976,-37
599619061165205376,-32
599619061172891776,-32
599619061180578176,-35
599619061188264704,-30
599619061195951104,-25
599619061203637504,-25
599619061211323948,-21
599619061219010432,-14
599619061226696960,-14
599619061234383616,-9
599619061242070144,-7
599619061249756672,-7
599619061257443200,-2
599619061265129856,-2
599619061272816384,-2
599619061280502912,2
599619061288189568,4
599619061295876096,-4
599619061303562624,-2
599619061311249152,2
599619061318935808,0
599619061326622336,-2
599619061334308864,0
599619061341995520,2
599619061349682048,2
599619061357368576,0
599619061365055104,0
599619061372741760,4
599619061380428288,2
599619061388114816,0
599619061395801472,4
599619061403488000,4
599619061411174528,4
599619061418861056,4
599619061426547712,7
599619061434234240,7
599619061441920768,4
599619061449607424,2
599619061457293952,7
599619061464980480,4
599619061472667008,-2
599619061480353664,-9
599619061488040192,-9
599619061495726720,7
599619061503413376,30
599619061511099904,42
599619061518786432,37
599619061526472960,32
599619061534159616,18
599619061541846144,2
599619061549532672,2
599619061557219328,9
599619061564905856,9
599619061572592384,7
599619061580278912,9
599619061587965568,11
599619061595652096,9
599619061603338624,-2
599619061611025280,-58
599619061618711808,-145
599619061626398336,-88
599619061634084864,233
599619061641771520,591
599619061649458048,547
599619061657144576,77
599619061664831232,-231
599619061672517760,-145
599619061680204288,-42
599619061687890816,-16
599619061695577472,35
599619061703264000,30
599619061710950528,2
599619061718637184,16
599619061726323712,28
599619061734010240,21
599619061741696768,23
599619061749383424,32
599619061757069952,35
599619061764756480,32
599619061772443153,35
599619061780129792,42
599619061787816448,44
599619061795503232,53
599619061803189888,60
599619061810876544,63
599619061818563328,67
599619061826249984,77
599619061833936768,84
599619061841623424,88
599619061849310080,98
599619061856996864,105
599619061864683520,107
599619061872370176,109
599619061880056960,112
599619061887743616,105
599619061895430400,93
599619061903117056,81
599619061910803712,60
599619061918490496,30
599619061926177152,0
599619061933863808,-23
599619061941550592,-35
599619061949237248,-42
599619061956924032,-49
599619061964610688,-51
599619061972297344,-51
599619061979984128,-46
599619061987670784,-46
599619061995357440,-44
599619062003044224,-44
599619062010730880,-42
599619062018417664,-39
599619062026104320,-37
599619062033790976,-35
599619062041477760,-30
599619062049164416,-28
599619062056851072,-23
599619062064537856,-18
599619062072224512,-16
599619062079911296,-14
599619062087597952,-9
599619062095284608,-7
599619062102971392,-7
599619062110658048,-7
599619062118344704,-4
599619062126031488,-4
599619062133718144,-2
599619062141404928,-2
599619062149091584,-7
599619062156778240,-4
599619062164465024,0
599619062172151680,0
599619062179838336,0
599619062187525120,4
599619062195211776,2
599619062202898560,4
599619062210585216,4
599619062218271872,4
599619062225958656,9
599619062233645312,9
599619062241331968,7
599619062249018752,7
599619062256705408,9
599619062264392192,9
599619062272078848,11
599619062279765504,9
599619062287452288,7
599619062295138944,7
599619062302825600,4
599619062310512384,2
599619062318199040,18
599619062325885824,39
599619062333572532,42
599619062341258752,42
599619062348945024,42
599619062356631296,23
599619062364317568,11
599619062372003840,16
599619062379690240,16
599619062387376512,9
599619062395062784,14
599619062402749056,18
599619062410435328,14
599619062418121600,11
599619062425807872,7
599619062433494144,-46
599619062441180416,-131
599619062448866816,-74
599619062456553088,224
599619062464239360,526
599619062471925632,421
599619062479611904,-32
599619062487298176,-259
599619062494984448,-133
599619062502670720,-46
599619062510356992,-16
599619062518043264,63
599619062525729664,63
599619062533415936,18
599619062541102208,35
599619062548788480,51
599619062556474752,39
599619062564161024,42
599619062571847296,51
599619062579533568,49
599619062587219840,51
599619062594906240,60
599619062602592512,60
599619062610278784,63
599619062617965056,70
599619062625651328,77
599619062633337600,84
599619062641023872,93
599619062648710144,98
599619062656396416,102
599619062664082816,114
599619062671769088,119
599619062679455360,124
599619062687141632,124
599619062694827904,116
599619062702514176,114
599619062710200448,112
599619062717886720,105
599619062725572992,88
599619062733259264,67
599619062740945664,35
599619062748631936,2
599619062756318208,-16
599619062764004480,-25
599619062771690752,-32
599619062779377024,-37
599619062787063296,-39
599619062794749568,-35
599619062802435840,-30
599619062810122240,-30
599619062817808512,-32
599619062825494784,-28
599619062833181056,-23
599619062840867328,-25
599619062848553600,-25
599619062856239872,-16
599619062863926144,-9
599619062871612416,-7
599619062879298816,-7
599619062886985088,0
599619062894671393,7
599619062902358016,4
599619062910044672,7
599619062917731456,9
599619062925418112,4
599619062933104768,7
599619062940791552,11
599619062948478208,7
599619062956164992,2
599619062963851648,4
599619062971538304,4
599619062979225088,9
599619062986911744,9
599619062994598400,4
599619063002285184,7
599619063009971840,7
599619063017658624,4
599619063025345280,7
599619063033031936,9
599619063040718720,4
599619063048405376,7
599619063056092032,14
599619063063778816,11
599619063071465472,11
599619063079152256,16
599619063086838912,9
599619063094525568,0
599619063102212352,2
599619063109899008,9
599619063117585664,9
599619063125272448,7
599619063132959104,11
599619063140645888,14
599619063148332544,14
599619063156019200,18
599619063163705984,18
599619063171392640,16
599619063179079296,18
599619063186766080,11
599619063194452736,7
599619063202139520,7
599619063209826176,2
599619063217512832,7
599619063225199616,32
599619063232886272,46
599619063240572928,44
599619063248259712,46
599619063255946368,37
599619063263633152,23
599619063271319808,16
599619063279006464,14
599619063286693248,14
599619063294379904,21
599619063302066560,25
599619063309753344,18
599619063317440000,18
599619063325126784,21
599619063332813440,-16
599619063340500096,-102
599619063348186880,-114
599619063355873536,100
599619063363560192,432
599619063371246976,496
599619063378933632,133
599619063386620416,-198
599619063394307072,-156
599619063401993728,-32
599619063409680512,0
599619063417367168,46
599619063425053824,56
599619063432740608,23
599619063440427264,28
599619063448114048,46
599619063455800772,32
599619063463487488,32
599619063471174144,49
599619063478860928,51
599619063486547584,37
599619063494234240,39
599619063501921024,53
599619063509607680,56
599619063517294464,49
599619063524981120,53
599619063532667776,60
599619063540354560,65
599619063548041216,67
599619063555727872,74
599619063563414656,81
599619063571101312,86
599619063578788096,93
599619063586474752,95
599619063594161408,102
599619063601848192,105
599619063609534848,98
599619063617221504,91
599619063624908288,79
599619063632594944,65
599619063640281728,46
599619063647968384,16
599619063655655040,-9
599619063663341824,-21
599619063671028480,-32
599619063678715136,-39
599619063686401920,-39
599619063694088576,-39
599619063701775360,-39
599619063709462016,-35
599619063717148672,-32
599619063724835456,-32
599619063732522112,-30
599619063740208768,-25
599619063747895552,-21
599619063755582208,-23
599619063763268992,-23
599619063770955648,-21
599619063778642304,-16
599619063786329088,-11
599619063794015744,-9
599619063801702400,-9
599619063809389184,-2
599619063817075840,0
599619063824762624,-2
599619063832449280,0
599619063840135936,4
599619063847822720,4
599619063855509376,4
599619063863196032,7
599619063870882816,9
599619063878569472,7
599619063886256256,7
599619063893942912,7
599619063901629568,7
599619063909316352,7
599619063917003008,9
599619063924689664,11
599619063932376448,14
599619063940063104,11
599619063947749888,9
599619063955436544,11
599619063963123200,14
599619063970809984,14
599619063978496640,14
599619063986183296,16
599619063993870080,14
599619064001556736,16
599619064009243520,23
599619064016930155,18
599619064024616448,11
599619064032302720,14
599619064039988992,18
599619064047675264,16
599619064055361536,14
599619064063047936,16
599619064070734208,18
599619064078420480,16
599619064086106752,11
599619064093793024,14
599619064101479296,18
599619064109165568,16
599619064116851840,11
599619064124538112,11
599619064132224512,11
599619064139910784,14
599619064147597056,14
599619064155283328,9
599619064162969600,4
599619064170655872,-2
599619064178342144,2
599619064186028416,28
599619064193714688,44
599619064201400960,39
599619064209087360,42
599619064216773632,39
599619064224459904,18
599619064232146176,11
599619064239832448,18
599619064247518720,21
599619064255204992,18
599619064262891264,18
599619064270577536,18
599619064278263936,21
599619064285950208,16
599619064293636480,-18
599619064301322752,-100
599619064309009024,-116
599619064316695296,88
599619064324381568,428
599619064332067840,503
599619064339754112,161
599619064347440512,-154
599619064355126784,-128
599619064362813056,-16
599619064370499328,18
599619064378185600,42
599619064385871872,37
599619064393558144,18
599619064401244416,28
599619064408930688,37
599619064416616960,32
599619064424303360,35
599619064431989632,39
599619064439675904,39
599619064447362176,39
599619064455048448,42
599619064462734720,46
599619064470420992,46
599619064478107264,46
599619064485793536,53
599619064493479936,60
599619064501166208,63
599619064508852480,65
599619064516538752,72
599619064524225024,77
599619064531911296,81
599619064539597568,88
599619064547283840,91
599619064554970112,91
599619064562656512,95
599619064570342784,91
599619064578029016,84
599619064585715712,79
599619064593402368,67
599619064601089152,46
599619064608775808,21
599619064616462464,0
599619064624149248,-16
599619064631835904,-23
599619064639522688,-25
599619064647209344,-28
599619064654896000,-32
599619064662582784,-35
599619064670269440,-30
599619064677956096,-23
599619064685642880,-23
599619064693329536,-23
599619064701016320,-21
599619064708702976,-18
599619064716389632,-18
599619064724076416,-14
599619064731763072,-11
599619064739449728,-11
599619064747136512,-9
599619064754823168,-2
599619064762509952,2
599619064770196608,0
599619064777883264,0
599619064785570048,4
599619064793256704,7
599619064800943360,7
599619064808630144,11
599619064816316800,11
599619064824003584,11
599619064831690240,14
599619064839376896,11
599619064847063680,9
599619064854750336,14
599619064862436992,16
599619064870123776,11
599619064877810432,14
599619064885497216,16
599619064893183872,18
599619064900870528,16
599619064908557312,18
599619064916243968,18
599619064923930624,18
599619064931617408,18
599619064939304064,21
599619064946990848,21
599619064954677504,18
599619064962364160,18
599619064970050944,21
599619064977737600,23
599619064985424256,23
599619064993111040,25
599619065000797696,25
599619065008484480,25
599619065016171136,25
599619065023857792,25
599619065031544576,25
599619065039231232,28
599619065046917888,25
599619065054604672,23
599619065062291328,21
599619065069978112,18
599619065077664768,11
599619065085351424,11
599619065093038208,28
599619065100724864,51
599619065108411520,56
599619065116098304,56
599619065123784960,53
599619065131471744,37
599619065139158395,23
599619065146845056,28
599619065154531712,30
599619065162218496,25
599619065169905152,30
599619065177591808,37
599619065185278592,32
599619065192965248,28
599619065200652032,9
599619065208338688,-60
599619065216025344,-121
599619065223712128,9
599619065231398784,346
599619065239085440,573
599619065246772224,348
599619065254458880,-84
599619065262145664,-189
599619065269832320,-42
599619065277518976,23
599619065285205760,39
599619065292892416,58
599619065300579072,44
599619065308265856,37
599619065315952512,46
599619065323639296,49
599619065331325952,49
599619065339012608,53
599619065346699392,53
599619065354386048,53
599619065362072704,58
599619065369759488,65
599619065377446144,65
599619065385132928,65
599619065392819584,70
599619065400506240,77
599619065408193024,81
599619065415879680,88
599619065423566336,93
599619065431253120,98
599619065438939776,105
599619065446626560,112
599619065454313216,116
599619065461999872,121
599619065469686656,121
599619065477373312,119
599619065485059968,114
599619065492746752,109
599619065500433408,98
599619065508120192,74
599619065515806848,44
599619065523493504,21
599619065531180288,4
599619065538866944,-7
599619065546553600,-14
599619065554240384,-18
599619065561927040,-23
599619065569613824,-21
599619065577300480,-16
599619065584987136,-14
599619065592673920,-11
599619065600360576,-11
599619065608047232,-11
599619065615734016,-9
599619065623420672,-4
599619065631107456,-4
599619065638794112,-2
599619065646480768,2
599619065654167552,7
599619065661854208,9
599619065669540864,11
599619065677227648,14
599619065684914304,16
599619065692601088,21
599619065700287774,18
599619065707974400,16
599619065715661056,21
599619065723347840,28
599619065731034496,25
599619065738721152,21
599619065746407936,21
599619065754094592,23
599619065761781376,23
599619065769468032,21
599619065777154688,23
599619065784841472,23
599619065792528128,23
599619065800214784,25
599619065807901568,28
599619065815588224,25
599619065823275008,25
599619065830961664,30
599619065838648320,28
599619065846335104,25
599619065854021760,28
599619065861708416,30
599619065869395200,30
599619065877081856,30
599619065884768640,28
599619065892455296,30
599619065900141952,32
599619065907828736,30
599619065915515392,25
599619065923202048,23
599619065930888832,18
599619065938575488,18
599619065946262272,35
599619065953948928,58
599619065961635584,65
599619065969322368,63
599619065977009024,56
599619065984695680,37
599619065992382464,28
599619066000069120,35
599619066007755904,37
599619066015442560,32
599619066023129216,35
599619066030816000,37
599619066038502656,35
599619066046189312,30
599619066053876096,9
599619066061562752,-67
599619066069249536,-124
599619066076936192,32
599619066084622848,390
599619066092309632,596
599619066099996288,322
599619066107682944,-124
599619066115369728,-194
599619066123056384,-37
599619066130743168,18
599619066138429824,46
599619066146116480,65
599619066153803264,39
599619066161489920,37
599619066169176576,51
599619066176863360,49
599619066184550016,49
599619066192236800,58
599619066199923456,56
599619066207610112,56
599619066215296896,63
599619066222983552,65
599619066230670208,67
599619066238356992,72
599619066246043648,77
599619066253730432,81
599619066261417153,88
599619066269103872,95
599619066276790528,102
599619066284477312,107
599619066292163968,114
599619066299850624,124
599619066307537408,128
599619066315224064,131
599619066322910848,133
599619066330597504,133
599619066338284160,124
599619066345970944,109
599619066353657600,95
599619066361344256,70
599619066369031040,37
599619066376717696,9
599619066384404480,-9
599619066392091136,-21
599619066399777792,-30
599619066407464576,-32
599619066415151232,-35
599619066422837888,-32
599619066430524672,-30
599619066438211328,-28
599619066445898112,-28
599619066453584768,-23
599619066461271424,-21
599619066468958208,-16
599619066476644864,-14
599619066484331520,-11
599619066492018304,-9
599619066499704960,-2
599619066507391744,0
599619066515078400,2
599619066522765056,2
599619066530451840,4
599619066538138496,7
599619066545825152,9
599619066553511936,11
599619066561198592,11
599619066568885376,11
599619066576572032,7
599619066584258688,7
599619066591945472,9
599619066599632128,11
599619066607318784,9
599619066615005568,9
599619066622692224,9
599619066630379008,11
599619066638065664,14
599619066645752320,14
599619066653439104,14
599619066661125760,14
599619066668812416,14
599619066676499200,14
599619066684185856,18
599619066691872640,16
599619066699559296,16
599619066707245952,16
599619066714932736,16
599619066722619392,16
599619066730306048,18
599619066737992832,18
599619066745679488,18
599619066753366272,14
599619066761052928,7
599619066768739584,2
599619066776426368,4
599619066784113024,23
599619066791799680,46
599619066799486464,49
599619066807173120,49
599619066814859904,44
599619066822546532,21
599619066830233216,9
599619066837919872,21
599619066845606656,25
599619066853293312,16
599619066860979968,16
599619066868666752,21
599619066876353408,21
599619066884040192,21
599619066891726848,-2
599619066899413504,-79
599619066907100288,-145
599619066914786944,-14
599619066922473600,343
599619066930160384,601
599619066937847040,379
599619066945533824,-95
599619066953220480,-233
599619066960907136,-91
599619066968593920,-16
599619066976280576,25
599619066983967232,63
599619066991654016,32
599619066999340672,18
599619067007027456,42
599619067014714112,44
599619067022400768,35
599619067030087552,39
599619067037774208,51
599619067045460864,51
599619067053147648,51
599619067060834304,53
599619067068521088,60
599619067076207744,65
599619067083894400,67
599619067091581184,67
599619067099267840,74
599619067106954496,84
599619067114641280,88
599619067122327936,95
599619067130014720,102
599619067137701376,109
599619067145388032,114
599619067153074816,114
599619067160761472,114
599619067168448128,112
599619067176134912,107
599619067183821568,95
599619067191508352,81
599619067199195008,56
599619067206881664,23
599619067214568448,-2
599619067222255104,-21
599619067229941760,-30
599619067237628544,-35
599619067245315200,-39
599619067253001984,-42
599619067260688640,-42
599619067268375296,-42
599619067276062080,-39
599619067283748736,-35
599619067291435392,-32
599619067299122176,-28
599619067306808832,-25
599619067314495616,-23
599619067322182272,-21
599619067329868928,-16
599619067337555712,-9
599619067345242368,-7
599619067352929024,-2
599619067360615808,0
599619067368302464,0
599619067375989248,2
599619067383675915,4
599619067391362560,4
599619067399049216,4
599619067406736000,4
599619067414422656,2
599619067422109312,4
599619067429796096,4
599619067437482752,4
599619067445169536,4
599619067452856192,2
599619067460542848,4
599619067468229632,4
599619067475916288,4
599619067483602944,4
599619067491289728,7
599619067498976384,9
599619067506663168,9
599619067514349824,4
599619067522036480,4
599619067529723264,9
599619067537409920,9
599619067545096576,7
599619067552783360,7
599619067560470016,9
599619067568156800,11
599619067575843456,11
599619067583530112,11
599619067591216896,11
599619067598903552,9
599619067606590208,9
599619067614276992,11
599619067621963648,7
599619067629650432,2
599619067637337088,0
599619067645023744,-4
599619067652710528,2
599619067660397184,30
599619067668083840,49
599619067675770624,46
599619067683457280,42
599619067691144064,30
599619067698830720,14
599619067706517376,9
599619067714204160,16
599619067721890816,16
599619067729577472,16
599619067737264256,14
599619067744950912,16
599619067752637696,18
599619067760324352,11
599619067768011008,-39
599619067775697792,-131
599619067783384448,-109
599619067791071104,173
599619067798757888,542
599619067806444544,561
599619067814131328,116
599619067821817984,-233
599619067829504640,-168
599619067837191424,-37
599619067844878080,0
599619067852564736,44
599619067860251520,42
599619067867938176,11
599619067875624960,28
599619067883311616,39
599619067890998272,30
599619067898685056,32
599619067906371712,42
599619067914058368,39
599619067921745152,39
599619067929431808,44
599619067937118592,51
599619067944805294,56
599619067952491776,60
