599618002707244928,2
599618002714937216,176
599618002722629504,336
599618002730321792,456
599618002738014208,585
599618002745706496,711
599618002753398784,816
599618002761091072,917
599618002768783360,1017
599618002776475648,1108
599618002784168064,1191
599618002791860352,1273
599618002799552640,1344
599618002807244928,1411
599618002814937216,1480
599618002822629504,1538
599618002830321792,1590
599618002838014208,1648
599618002845706496,1698
599618002853398784,1741
599618002861091072,1786
599618002868783360,1834
599618002876475648,1874
599618002884168064,1906
599618002891860352,1941
599618002899552640,1977
599618002907244928,2006
599618002914937216,2032
599618002922629504,2056
599618002930321792,2085
599618002938014208,2111
599618002945706496,2125
599618002953398784,2142
599618002961091072,2166
599618002968783360,2183
599618002976475648,2195
599618002984168064,2206
599618002991860352,2218
599618002999552640,2235
599618003007244928,2233
599618003014937216,2218
599618003022629504,2230
599618003030321792,2269
599618003038014208,2288
599618003045706496,2295
599618003053398784,2309
599618003061091072,2307
599618003068783360,2297
599618003076475648,2297
599618003084168064,2285
599618003091860352,2261
599618003099552640,2249
599618003107244928,2245
599618003114937216,2238
599618003122629504,2233
599618003130321792,2223
599618003138014208,2187
599618003145706496,2070
599618003153398784,1970
599618003161091072,2180
599618003168783360,2763
599618003176475648,3253
599618003184168064,2971
599618003191860352,2078
599618003199552640,1662
599618003207244928,1886
599618003214937216,2027
599618003222629504,2030
599618003230321792,2094
599618003238014208,2097
599618003245706496,2056
599618003253398784,2061
599618003261091136,2068
599618003268778240,2046
599618003276465408,2035
599618003284152576,2032
599618003291839872,2023
599618003299527040,2013
599618003307214208,2006
599618003314901376,1999
599618003322588544,1999
599618003330275712,2001
599618003337963008,1989
599618003345650176,1975
599618003353337344,1977
599618003361024512,1980
599618003368711680,1977
599618003376398976,1975
599618003384086144,1972
599618003391773312,1970
599618003399460480,1956
599618003407147648,1937
599618003414834816,1915
599618003422522112,1882
599618003430209280,1836
599618003437896448,1786
599618003445583616,1729
599618003453270784,1671
599618003460958080,1626
599618003468645248,1590
599618003476332416,1559
599618003484019584,1535
599618003491706752,1514
599618003499394048,1499
599618003507081216,1488
599618003514768384,1466
599618003522455552,1452
599618003530142720,1445
599618003537829888,1433
599618003545517184,1418
599618003553204352,1413
599618003560891520,1406
599618003568578688,1392
599618003576265856,1380
599618003583953152,1371
599618003591640320,1363
599618003599327488,1356
599618003607014656,1344
599618003614701824,1328
599618003622388992,1316
599618003630076288,1306
599618003637763456,1294
599618003645450624,1282
599618003653137792,1270
599618003660824960,1253
599618003668512256,1242
599618003676199424,1230
599618003683886592,1215
599618003691573760,1203
599618003699260928,1191
599618003706948096,1175
599618003714635392,1165
599618003722322560,1158
599618003730009728,1146
599618003737696896,1136
599618003745384064,1124
599618003753071360,1110
599618003760758528,1101
599618003768445696,1091
599618003776132864,1081
599618003783820032,1070
599618003791507328,1058
599618003799194496,1046
599618003806881664,1039
599618003814568832,1029
599618003822256120,1019
599618003829943296,1010
599618003837630464,1000
599618003845317632,988
599618003853004928,979
599618003860692096,967
599618003868379264,957
599618003876066432,945
599618003883753600,924
599618003891440768,902
599618003899128064,907
599618003906815232,924
599618003914502400,924
599618003922189568,921
599618003929876736,921
599618003937564032,898
599618003945251200,862
599618003952938368,850
599618003960625536,847
599618003968312704,838
599618003975999872,826
599618003983687168,816
599618003991374336,812
599618003999061504,807
599618004006748672,795
599618004014435840,742
599618004022123136,611
599618004029810304,549
599618004037497472,833
599618004045184640,1437
599618004052871808,1834
599618004060559104,1430
599618004068246272,592
599618004075933440,305
599618004083620608,523
599618004091307776,623
599618004098994944,642
599618004106682240,690
599618004114369408,680
599618004122056576,659
599618004129743744,673
599618004137430912,680
599618004145118208,668
599618004152805376,668
599618004160492544,673
599618004168179712,673
599618004175866880,668
599618004183554048,668
599618004191241344,673
599618004198928512,675
599618004206615680,675
599618004214302848,680
599618004221990016,687
599618004229677312,695
599618004237364480,704
599618004245051648,709
599618004252738816,716
599618004260425984,723
599618004268113152,726
599618004275800448,721
599618004283487616,711
599618004291174784,699
599618004298861952,678
599618004306549120,649
599618004314236416,609
599618004321923584,563
599618004329610752,523
599618004337297920,492
599618004344985088,463
599618004352672384,437
599618004360359552,425
599618004368046720,420
599618004375733888,413
599618004383421104,403
599618004391107968,403
599618004398794880,406
599618004406481792,403
599618004414168704,398
599618004421855616,398
599618004429542528,401
599618004437229440,401
599618004444916352,398
599618004452603264,396
599618004460290176,396
599618004467977088,398
599618004475664000,396
599618004483350912,394
599618004491037824,391
599618004498724736,389
599618004506411648,389
599618004514098560,386
599618004521785472,382
599618004529472384,374
599618004537159296,370
599618004544846208,367
599618004552533120,363
599618004560220032,360
599618004567906944,355
599618004575593856,351
599618004583280768,346
599618004590967680,343
599618004598654592,343
599618004606341504,341
599618004614028416,341
599618004621715328,339
599618004629402240,336
599618004637089152,332
599618004644776064,329
599618004652462976,327
599618004660149888,322
599618004667836800,320
599618004675523712,320
599618004683210624,317
599618004690897536,315
599618004698584448,315
599618004706271360,315
599618004713958272,310
599618004721645184,305
599618004729332096,303
599618004737019008,300
599618004744705920,300
599618004752392832,298
599618004760079744,293
599618004767766656,289
599618004775453568,277
599618004783140480,265
599618004790827392,269
599618004798514304,293
599618004806201216,310
599618004813888128,312
599618004821575040,315
599618004829261952,305
599618004836948864,281
599618004844635776,269
599618004852322688,272
599618004860009600,267
599618004867696512,265
599618004875383424,267
599618004883070336,262
599618004890757248,257
599618004898444160,260
599618004906131072,226
599618004913817984,114
599618004921504896,31
599618004929191808,246
599618004936878720,816
599618004944565740,1308
599618004952252928,1074
599618004959940096,238
599618004967627136,-193
599618004975314304,-7
599618004983001472,148
599618004990688512,164
599618004998375680,217
599618005006062720,234
599618005013749888,214
599618005021437056,222
599618005029124096,231
599618005036811264,226
599618005044498432,234
599618005052185472,241
599618005059872640,246
599618005067559808,250
599618005075246848,257
599618005082934016,265
599618005090621184,267
599618005098308224,274
599618005105995392,289
599618005113682432,298
599618005121369600,310
599618005129056768,324
599618005136743808,341
599618005144430976,351
599618005152118144,360
599618005159805184,367
599618005167492352,374
599618005175179520,374
599618005182866560,358
599618005190553728,341
599618005198240768,320
599618005205927936,289
599618005213615104,246
599618005221302144,203
599618005228989312,169
599618005236676480,145
599618005244363520,121
599618005252050688,105
599618005259737856,100
599618005267424896,97
599618005275112064,95
599618005282799232,97
599618005290486272,100
599618005298173440,102
599618005305860480,102
599618005313547648,107
599618005321234816,112
599618005328921856,114
599618005336609024,119
599618005344296192,119
599618005351983232,119
599618005359670400,126
599618005367357568,131
599618005375044608,133
599618005382731776,136
599618005390418816,136
599618005398105984,136
599618005405793152,136
599618005413480192,136
599618005421167360,136
599618005428854528,133
599618005436541568,136
599618005444228736,138
599618005451915904,133
599618005459602944,128
599618005467290112,128
599618005474977152,131
599618005482664320,131
599618005490351488,128
599618005498038528,126
599618005505725637,126
599618005513412864,128
599618005521100032,131
599618005528787072,133
599618005536474240,131
599618005544161408,126
599618005551848448,126
599618005559535616,126
599618005567222656,126
599618005574909824,126
599618005582596992,121
599618005590284032,119
599618005597971200,119
599618005605658368,121
599618005613345408,119
599618005621032576,105
599618005628719744,100
599618005636406784,119
599618005644093952,143
599618005651781120,150
599618005659468160,157
599618005667155328,152
599618005674842368,131
599618005682529536,119
599618005690216704,121
599618005697903744,124
599618005705590912,119
599618005713278080,117
599618005720965120,119
599618005728652288,119
599618005736339456,121
599618005744026496,112
599618005751713664,38
599618005759400704,-93
599618005767087872,-52
599618005774775040,391
599618005782462080,1024
599618005790149248,1165
599618005797836416,441
599618005805523456,-320
599618005813210624,-298
599618005820897792,-35
599618005828584832,2
599618005836272000,66
599618005843959168,131
599618005851646208,102
599618005859333376,95
599618005867020416,124
599618005874707584,126
599618005882394752,124
599618005890081792,133
599618005897768960,138
599618005905456128,143
599618005913143168,152
599618005920830336,160
599618005928517504,167
599618005936204544,176
599618005943891712,188
599618005951578752,198
599618005959265920,210
599618005966953088,226
599618005974640128,243
599618005982327296,257
599618005990014464,274
599618005997701504,286
599618006005388672,286
599618006013075840,286
599618006020762880,284
599618006028450048,269
599618006036137216,246
599618006043824256,210
599618006051511424,164
599618006059198464,114
599618006066885538,74
599618006074572288,47
599618006082259072,28
599618006089945856,11
599618006097632640,2
599618006105319424,0
599618006113006208,0
599618006120692992,2
599618006128379648,2
599618006136066432,7
599618006143753216,11
599618006151440000,14
599618006159126784,19
599618006166813568,23
599618006174500352,28
599618006182187136,33
599618006189873920,35
599618006197560704,38
599618006205247488,42
599618006212934272,47
599618006220620928,47
599618006228307712,50
599618006235994496,57
599618006243681280,59
599618006251368064,59
599618006259054848,62
599618006266741632,59
599618006274428416,57
599618006282115200,57
599618006289801984,59
599618006297488768,62
599618006305175552,57
599618006312862208,57
599618006320548992,59
599618006328235776,59
599618006335922560,59
599618006343609344,62
599618006351296128,62
599618006358982912,62
599618006366669696,62
599618006374356480,64
599618006382043264,62
599618006389730048,62
599618006397416832,66
599618006405103488,66
599618006412790272,66
599618006420477056,66
599618006428163840,66
599618006435850624,66
599618006443537408,66
599618006451224192,64
599618006458910976,54
599618006466597760,45
599618006474284544,47
599618006481971328,71
599618006489658112,93
599618006497344768,102
599618006505031552,107
599618006512718336,102
599618006520405120,81
599618006528091904,69
599618006535778688,74
599618006543465472,71
599618006551152256,66
599618006558839040,71
599618006566525824,74
599618006574212608,71
599618006581899392,71
599618006589586176,54
599618006597272832,-35
599618006604959616,-157
599618006612646400,-52
599618006620333184,449
599618006628020004,1053
599618006635707392,1081
599618006643394816,327
599618006651082368,-310
599618006658769792,-238
599618006666457216,-33
599618006674144768,-7
599618006681832192,35
599618006689519744,66
599618006697207168,47
599618006704894592,52
599618006712582144,74
599618006720269568,74
599618006727956992,74
599618006735644544,85
599618006743331968,90
599618006751019392,93
599618006758706944,100
599618006766394368,107
599618006774081920,114
599618006781769344,124
599618006789456768,133
599618006797144320,148
599618006804831744,162
599618006812519168,176
599618006820206720,191
599618006827894144,205
599618006835581568,222
599618006843269120,231
599618006850956544,238
599618006858643968,236
599618006866331520,231
599618006874018944,222
599618006881706496,200
599618006889393920,164
599618006897081344,124
599618006904768896,81
599618006912456320,45
599618006920143744,19
599618006927831296,0
599618006935518720,-11
599618006943206144,-16
599618006950893696,-19
599618006958581120,-19
599618006966268672,-16
599618006973956096,-16
599618006981643520,-11
599618006989331072,-7
599618006997018496,-2
599618007004705920,0
599618007012393472,4
599618007020080896,9
599618007027768320,14
599618007035455872,19
599618007043143296,21
599618007050830848,23
599618007058518272,28
599618007066205696,33
599618007073893248,33
599618007081580672,38
599618007089268096,40
599618007096955648,40
599618007104643072,38
599618007112330496,38
599618007120018048,40
599618007127705472,38
599618007135392896,35
599618007143080448,35
599618007150767872,38
599618007158455424,38
599618007166142848,38
599618007173830272,40
599618007181517824,40
599618007189205332,40
599618007196892288,40
599618007204579200,42
599618007212266112,42
599618007219953024,42
599618007227639936,45
599618007235326848,45
599618007243013760,45
599618007250700672,47
599618007258387584,47
599618007266074496,47
599618007273761408,47
599618007281448320,47
599618007289135232,47
599618007296822144,47
599618007304509056,50
599618007312195968,52
599618007319882880,50
599618007327569792,50
599618007335256704,50
599618007342943616,47
599618007350630528,45
599618007358317440,33
599618007366004352,28
599618007373691264,47
599618007381378176,85
599618007389065088,107
599618007396752000,100
599618007404438912,90
599618007412125824,76
599618007419812736,54
599618007427499648,50
599618007435186560,59
599618007442873472,62
599618007450560384,66
599618007458247296,76
599618007465934208,90
599618007473621120,105
599618007481308032,114
599618007488994944,71
599618007496681856,-54
599618007504368768,-78
599618007512055680,269
599618007519742592,905
599618007527429504,1222
599618007535116416,697
599618007542803328,-119
599618007550490240,-312
599618007558177152,-114
599618007565864064,-50
599618007573550976,-19
599618007581237888,26
599618007588924800,14
599618007596611712,9
599618007604298624,33
599618007611985536,40
599618007619672448,38
599618007627359360,45
599618007635046272,54
599618007642733184,57
599618007650420096,64
599618007658107008,74
599618007665793920,81
599618007673480832,88
599618007681167744,100
599618007688854656,112
599618007696541568,124
599618007704228480,138
599618007711915392,152
599618007719602304,167
599618007727289216,181
599618007734976128,195
599618007742663040,205
599618007750349972,205
599618007758036864,203
599618007765723776,195
599618007773410688,181
599618007781097600,155
599618007788784512,121
599618007796471424,78
599618007804158336,38
599618007811845248,4
599618007819532160,-14
599618007827219072,-31
599618007834905984,-40
599618007842592896,-42
599618007850279808,-45
599618007857966720,-45
599618007865653632,-42
599618007873340544,-35
599618007881027456,-33
599618007888714368,-31
599618007896401280,-26
599618007904088192,-21
599618007911775104,-16
599618007919462016,-11
599618007927148928,-7
599618007934835840,-4
599618007942522752,0
599618007950209664,4
599618007957896576,7
599618007965583488,11
599618007973270400,16
599618007980957312,16
599618007988644224,16
599618007996331136,19
599618008004018048,19
599618008011704960,19
599618008019391872,19
599618008027078784,19
599618008034765696,19
599618008042452608,19
599618008050139520,16
599618008057826432,16
599618008065513344,19
599618008073200256,19
599618008080887168,21
599618008088574080,19
599618008096260992,19
599618008103947904,21
599618008111634816,23
599618008119321728,26
599618008127008640,26
599618008134695552,28
599618008142382464,28
599618008150069376,26
599618008157756288,26
599618008165443200,28
599618008173130112,28
599618008180817024,33
599618008188503936,33
599618008196190848,31
599618008203877760,31
599618008211564672,33
599618008219251584,33
599618008226938496,33
599618008234625408,33
599618008242312320,31
599618008249999232,21
599618008257686144,11
599618008265373056,23
599618008273059968,47
599618008280746880,66
599618008288433792,74
599618008296120704,76
599618008303807616,62
599618008311494608,40
599618008319182080,35
599618008326869504,42
599618008334557056,40
599618008342244480,38
599618008349931904,42
599618008357619456,42
599618008365306880,42
599618008372994432,40
599618008380681856,4
599618008388369280,-109
599618008396056832,-183
599618008403744256,69
599618008411431680,666
599618008419119232,1115
599618008426806656,795
599618008434494080,-33
599618008442181632,-377
599618008449869056,-176
599618008457556608,-52
599618008465244032,-28
599618008472931456,23
599618008480619008,28
599618008488306432,14
599618008495993856,33
599618008503681408,47
599618008511368832,45
599618008519056256,50
599618008526743808,57
599618008534431232,62
599618008542118656,69
599618008549806208,76
599618008557493632,81
599618008565181184,85
599618008572868608,97
599618008580556032,109
599618008588243584,121
599618008595931008,133
599618008603618432,148
599618008611305984,162
599618008618993408,179
599618008626680832,191
599618008634368384,200
599618008642055808,205
599618008649743360,203
599618008657430784,191
599618008665118208,179
599618008672805760,157
599618008680493184,121
599618008688180608,81
599618008695868160,45
599618008703555584,11
599618008711243008,-14
599618008718930560,-31
599618008726617984,-38
599618008734305536,-42
599618008741992960,-47
599618008749680384,-47
599618008757367936,-42
599618008765055360,-40
599618008772742784,-38
599618008780430336,-31
599618008788117760,-26
599618008795805184,-23
599618008803492736,-19
599618008811180160,-14
599618008818867712,-11
599618008826555136,-7
599618008834242560,-2
599618008841930112,0
599618008849617536,4
599618008857304960,11
599618008864992512,14
599618008872679940,14
599618008880366720,14
599618008888053504,19
599618008895740288,21
599618008903427072,16
599618008911113856,14
599618008918800640,14
599618008926487424,14
599618008934174080,14
599618008941860864,14
599618008949547648,16
599618008957234432,14
599618008964921216,16
599618008972608000,19
599618008980294784,19
599618008987981568,21
599618008995668352,21
599618009003355136,21
599618009011041920,21
599618009018728704,23
599618009026415360,26
599618009034102144,23
599618009041788928,26
599618009049475712,26
599618009057162496,26
599618009064849280,28
599618009072536064,28
599618009080222848,28
599618009087909632,28
599618009095596416,28
599618009103283200,31
599618009110969984,31
599618009118656640,31
599618009126343424,33
599618009134030208,35
599618009141716992,33
599618009149403776,28
599618009157090560,28
599618009164777344,23
599618009172464128,11
599618009180150912,14
599618009187837696,33
599618009195524480,54
599618009203211264,66
599618009210897920,74
599618009218584704,69
599618009226271488,47
599618009233958272,31
599618009241645056,35
599618009249331840,40
599618009257018624,38
599618009264705408,35
599618009272392192,35
599618009280078976,40
599618009287765760,42
599618009295452544,21
599618009303139200,-69
599618009310825984,-179
599618009318512768,-52
599618009326199552,465
599618009333886336,1039
599618009341573120,979
599618009349259904,169
599618009356946688,-422
599618009364633472,-291
599618009372320256,-78
599618009380007040,-57
599618009387693824,4
599618009395380480,45
599618009403067264,19
599618009410754048,26
599618009418440832,47
599618009426127616,45
599618009433814402,47
599618009441501568,62
599618009449188736,66
599618009456875904,69
599618009464563200,74
599618009472250368,83
599618009479937536,93
599618009487624704,102
599618009495311872,109
599618009502999040,121
599618009510686336,136
599618009518373504,152
599618009526060672,169
599618009533747840,183
599618009541435008,193
599618009549122304,207
599618009556809472,214
599618009564496640,210
599618009572183808,205
599618009579870976,195
599618009587558272,176
599618009595245440,143
599618009602932608,102
599618009610619776,62
599618009618306944,21
599618009625994112,-7
599618009633681408,-26
599618009641368576,-42
599618009649055744,-47
599618009656742912,-50
599618009664430080,-52
599618009672117376,-50
599618009679804544,-45
599618009687491712,-42
599618009695178880,-40
599618009702866048,-31
599618009710553216,-26
599618009718240512,-26
599618009725927680,-21
599618009733614848,-14
599618009741302016,-11
599618009748989184,-9
599618009756676480,-2
599618009764363648,2
599618009772050816,0
599618009779737984,2
599618009787425152,7
599618009795112320,9
599618009802799616,7
599618009810486784,9
599618009818173952,11
599618009825861120,14
599618009833548288,9
599618009841235584,7
599618009848922752,9
599618009856609920,11
599618009864297088,11
599618009871984256,14
599618009879671552,16
599618009887358720,14
599618009895045888,11
599618009902733056,14
599618009910420224,19
599618009918107392,19
599618009925794688,16
599618009933481856,19
599618009941169024,21
599618009948856192,21
599618009956543360,21
599618009964230656,21
599618009971917824,26
599618009979604992,26
599618009987292160,26
599618009994979390,26
599618010002666496,23
599618010010353664,26
599618010018040832,28
599618010025728128,23
599618010033415296,14
599618010041102464,4
599618010048789632,9
599618010056476800,31
599618010064163968,50
599618010071851264,59
599618010079538432,62
599618010087225600,50
599618010094912768,31
599618010102599936,21
599618010110287232,26
599618010117974400,28
599618010125661568,26
599618010133348736,26
599618010141035904,28
599618010148723072,28
599618010156410368,31
599618010164097536,4
599618010171784704,-102
599618010179471872,-205
599618010187159040,-16
599618010194846336,554
599618010202533504,1093
599618010210220672,905
599618010217907840,40
599618010225595008,-439
599618010233282304,-243
599618010240969472,-74
599618010248656640,-54
599618010256343808,14
599618010264030976,35
599618010271718144,11
599618010279405440,26
599618010287092608,42
599618010294779776,40
599618010302466944,45
599618010310154112,57
599618010317841408,59
599618010325528576,62
599618010333215744,74
599618010340902912,81
599618010348590080,90
599618010356277248,100
599618010363964544,107
599618010371651712,119
599618010379338880,133
599618010387026048,148
599618010394713216,162
599618010402400512,181
599618010410087680,193
599618010417774848,203
599618010425462016,210
599618010433149184,210
599618010440836352,203
599618010448523648,186
599618010456210816,162
599618010463897984,128
599618010471585152,85
599618010479272320,42
599618010486959616,9
599618010494646784,-14
599618010502333952,-35
599618010510021120,-47
599618010517708288,-52
599618010525395584,-54
599618010533082752,-54
599618010540769920,-52
599618010548457088,-47
599618010556144374,-45
599618010563831552,-42
599618010571518720,-38
599618010579205888,-35
599618010586893184,-31
599618010594580352,-23
599618010602267520,-21
599618010609954688,-16
599618010617641856,-11
599618010625329024,-9
599618010633016320,-4
599618010640703488,-2
599618010648390656,0
599618010656077824,4
599618010663764992,4
599618010671452288,4
599618010679139456,4
599618010686826624,7
599618010694513792,7
599618010702200960,4
599618010709888128,4
599618010717575424,7
599618010725262592,7
599618010732949760,4
599618010740636928,7
599618010748324096,9
599618010756011392,9
599618010763698560,9
599618010771385728,11
599618010779072896,11
599618010786760064,14
599618010794447360,16
599618010802134528,14
599618010809821696,16
599618010817508864,16
599618010825196032,16
599618010832883200,16
599618010840570496,19
599618010848257664,21
599618010855944832,21
599618010863632000,23
599618010871319168,23
599618010879006464,23
599618010886693632,23
599618010894380800,23
599618010902067968,26
599618010909755136,26
599618010917442304,26
599618010925129600,26
599618010932816768,23
599618010940503936,16
599618010948191104,7
599618010955878272,4
599618010963565568,19
599618010971252736,42
599618010978939904,59
599618010986627072,62
599618010994314240,64
599618011002001408,50
599618011009688704,28
599618011017375872,26
599618011025063040,33
599618011032750208,31
599618011040437376,31
599618011048124672,33
599618011055811840,33
599618011063499008,31
599618011071186176,23
599618011078873344,-38
599618011086560640,-164
599618011094247808,-155
599618011101934976,234
599618011109622144,857
599618011117309358,1113
599618011124996224,549
599618011132683136,-224
599618011140370048,-341
599618011148056960,-114
599618011155743872,-57
599618011163430784,-31
599618011171117696,19
599618011178804608,9
599618011186491520,2
599618011194178432,23
599618011201865344,31
599618011209552256,31
599618011217239168,35
599618011224926080,42
599618011232612992,45
599618011240299904,52
599618011247986816,62
599618011255673728,69
599618011263360640,76
599618011271047552,88
599618011278734464,102
599618011286421376,112
599618011294108288,124
599618011301795200,136
599618011309482112,150
599618011317169024,169
599618011324855936,191
599618011332542848,198
599618011340229760,193
599618011347916672,188
599618011355603584,181
599618011363290496,164
599618011370977408,138
599618011378664320,107
599618011386351232,69
599618011394038144,26
599618011401725056,-7
599618011409411968,-28
599618011417098880,-40
599618011424785792,-52
599618011432472704,-69
599618011440159616,-69
599618011447846528,-57
599618011455533440,-57
599618011463220352,-57
599618011470907264,-47
599618011478594176,-45
599618011486281088,-42
599618011493968000,-35
599618011501654912,-35
599618011509341824,-35
599618011517028736,-26
599618011524715648,-19
599618011532402560,-14
599618011540089472,-11
599618011547776384,-9
599618011555463296,-4
599618011563150208,-4
599618011570837120,-2
599618011578524032,4
599618011586210944,4
599618011593897856,2
599618011601584768,0
599618011609271680,0
599618011616958592,0
599618011624645504,2
599618011632332416,2
599618011640019328,0
599618011647706240,2
599618011655393152,2
599618011663080064,4
599618011670766976,4
599618011678453994,4
599618011686141184,4
599618011693828352,7
599618011701515392,9
599618011709202560,11
599618011716889728,11
599618011724576768,11
599618011732263936,11
599618011739950976,11
599618011747638144,9
599618011755325312,9
599618011763012352,9
599618011770699520,14
599618011778386688,21
599618011786073728,19
599618011793760896,14
599618011801448064,14
599618011809135104,14
599618011816822272,14
599618011824509440,14
599618011832196480,2
599618011839883648,-7
599618011847570688,4
599618011855257856,28
599618011862945024,38
599618011870632064,45
599618011878319232,50
599618011886006400,45
599618011893693440,23
599618011901380608,11
599618011909067776,19
599618011916754816,23
599618011924441984,16
599618011932129024,14
599618011939816192,21
599618011947503360,21
599618011955190400,16
599618011962877568,-23
599618011970564736,-150
599618011978251776,-210
599618011985938944,102
599618011993626112,747
599618012001313152,1134
599618012009000320,637
599618012016687488,-274
599618012024374528,-484
599618012032061696,-186
599618012039748736,-97
599618012047435904,-57
599618012055123072,40
599618012062810112,31
599618012070497280,2
599618012078184448,35
599618012085871488,45
599618012093558656,33
599618012101245824,47
599618012108932864,62
599618012116620032,62
599618012124307072,71
599618012131994240,81
599618012139681408,83
599618012147368448,93
599618012155055616,107
599618012162742784,117
599618012170429824,126
599618012178116992,145
599618012185804160,162
599618012193491200,174
599618012201178368,191
599618012208865408,210
599618012216552576,217
599618012224239744,217
599618012231926784,214
599618012239613891,212
599618012247301120,195
599618012254988288,162
599618012262675328,121
599618012270362496,78
599618012278049664,33
599618012285736704,-4
599618012293423872,-33
599618012301110912,-54
599618012308798080,-69
599618012316485248,-71
599618012324172288,-74
599618012331859456,-76
599618012339546624,-71
599618012347233664,-64
599618012354920832,-59
599618012362608000,-54
599618012370295040,-47
599618012377982208,-45
599618012385669376,-42
599618012393356416,-35
599618012401043584,-31
599618012408730624,-26
599618012416417792,-21
599618012424104960,-16
599618012431792000,-14
599618012439479168,-9
599618012447166336,-14
599618012454853376,-11
599618012462540544,-2
599618012470227712,-4
599618012477914752,-7
599618012485601920,-4
599618012493288960,-2
599618012500976128,-2
599618012508663296,-2
599618012516350336,-7
599618012524037504,-4
599618012531724672,0
599618012539411712,2
599618012547098880,2
599618012554786048,-2
599618012562473088,0
599618012570160256,7
599618012577847424,4
599618012585534464,0
599618012593221632,4
599618012600908672,2
599618012608595840,2
599618012616283008,-2
599618012623970048,-14
599618012631657216,-11
599618012639344384,14
599618012647031424,31
599618012654718592,40
599618012662405760,47
599618012670092800,38
599618012677779968,19
599618012685467008,14
599618012693154176,21
599618012700841344,21
599618012708528384,11
599618012716215552,14
599618012723902720,26
599618012731589760,23
599618012739276928,16
599618012746964096,2
599618012754651136,-90
599618012762338304,-222
599618012770025472,-97
599618012777712512,451
599618012785399680,1029
599618012793086720,890
599618012800773792,19
599618012808460928,-499
599618012816148096,-281
599618012823835136,-90
599618012831522304,-76
599618012839209472,16
599618012846896512,47
599618012854583680,4
599618012862270720,28
599618012869957888,52
599618012877645056,45
599618012885332096,54
599618012893019264,64
599618012900706432,64
599618012908393472,69
599618012916080640,81
599618012923767808,93
599618012931454848,100
599618012939142016,102
599618012946829184,112
599618012954516224,136
599618012962203392,155
599618012969890432,169
599618012977577600,183
599618012985264768,203
599618012992951808,226
599618013000638976,236
599618013008326144,238
599618013016013184,241
599618013023700352,236
599618013031387520,219
599618013039074560,191
599618013046761728,148
599618013054448768,95
599618013062135936,40
599618013069823104,-4
599618013077510144,-35
599618013085197312,-57
599618013092884480,-69
599618013100571520,-71
599618013108258688,-74
599618013115945856,-78
599618013123632896,-71
599618013131320064,-66
599618013139007232,-66
599618013146694272,-59
599618013154381440,-52
599618013162068480,-47
599618013169755648,-42
599618013177442816,-40
599618013185129856,-38
599618013192817024,-33
599618013200504192,-26
599618013208191232,-21
599618013215878400,-21
599618013223565568,-16
599618013231252608,-7
599618013238939776,-2
599618013246626816,-2
599618013254313984,-9
599618013262001152,-9
599618013269688192,-7
599618013277375360,-7
599618013285062528,-4
599618013292749568,2
599618013300436736,2
599618013308123904,-4
599618013315810944,-9
599618013323498112,-2
599618013331185152,-2
599618013338872320,-14
599618013346559488,-19
599618013354246528,-21
599618013361933689,-19
599618013369620480,4
599618013377307264,23
599618013384994176,31
599618013392680960,35
599618013400367872,26
599618013408054656,9
599618013415741568,7
599618013423428352,4
599618013431115264,-4
599618013438802048,-16
599618013446488960,-35
599618013454175744,-42
599618013461862656,-35
599618013469549440,-50
599618013477236224,-88
599618013484923136,-174
599618013492609920,-300
599618013500296832,-243
599618013507983616,231
599618013515670528,847
599618013523357312,855
599618013531044224,93
599618013538731008,-460
599618013546417920,-310
599618013554104704,-95
599618013561791616,-62
599618013569478400,23
599618013577165184,71
599618013584852096,35
599618013592538880,42
599618013600225792,71
599618013607912576,74
599618013615599488,71
599618013623286272,74
599618013630973184,85
599618013638659968,95
599618013646346880,95
599618013654033664,93
599618013661720576,100
599618013669407360,119
599618013677094144,136
599618013684781056,145
599618013692467840,160
599618013700154752,179
599618013707841536,183
599618013715528448,200
599618013723215232,236
599618013730902144,250
599618013738588928,243
599618013746275840,248
599618013753962624,253
599618013761649536,231
599618013769336320,193
599618013777023232,150
599618013784710016,97
599618013792396800,42
599618013800083712,2
599618013807770496,-23
599618013815457408,-40
599618013823144192,-54
599618013830831104,-69
599618013838517888,-69
599618013846204800,-57
599618013853891584,-54
599618013861578496,-57
599618013869265280,-50
599618013876952192,-42
599618013884638976,-42
599618013892325760,-42
599618013900012672,-38
599618013907699456,-28
599618013915386368,-23
599618013923073242,-23
599618013930760320,-19
599618013938447360,-9
599618013946134272,-4
599618013953821312,-4
599618013961508224,0
599618013969195264,9
599618013976882176,4
599618013984569216,0
599618013992256128,9
599618013999943168,14
599618014007630208,7
599618014015317120,4
599618014023004160,14
599618014030691072,11
599618014038378112,4
599618014046065024,9
599618014053752064,4
599618014061438976,-9
599618014069126016,-11
599618014076812928,-7
599618014084499968,9
599618014092187008,28
599618014099873920,40
599618014107560960,40
599618014115247872,28
599618014122934912,19
599618014130621824,16
599618014138308864,21
599618014145995776,21
599618014153682816,16
599618014161369856,19
599618014169056768,31
599618014176743808,31
599618014184430720,23
599618014192117760,16
599618014199804672,-57
599618014207491712,-198
599618014215178624,-150
599618014222865664,305
599618014230552576,878
599618014238239616,893
599618014245926656,205
599618014253613568,-353
599618014261300608,-267
599618014268987520,-71
599618014276674560,-35
599618014284361472,16
599618014292048512,38
599618014299735424,14
599618014307422464,31
599618014315109504,52
599618014322796416,42
599618014330483456,47
599618014338170368,59
599618014345857408,57
599618014353544320,64
599618014361231360,78
599618014368918272,81
599618014376605312,88
599618014384292224,105
599618014391979264,124
599618014399666304,128
599618014407353216,138
599618014415040256,164
599618014422727168,181
599618014430414208,186
599618014438101120,207
599618014445788160,236
599618014453475072,243
599618014461162112,236
599618014468849152,236
599618014476536064,224
599618014484222965,193
599618014491910144,145
599618014499597312,95
599618014507284352,42
599618014514971520,7
599618014522658688,-16
599618014530345728,-42
599618014538032896,-69
599618014545719936,-69
599618014553407104,-71
599618014561094272,-81
599618014568781312,-71
599618014576468480,-64
599618014584155648,-71
599618014591842688,-66
599618014599529856,-57
599618014607217024,-54
599618014614904064,-52
599618014622591232,-52
599618014630278400,-54
599618014637965440,-42
599618014645652608,-31
599618014653339648,-35
599618014661026816,-31
599618014668713984,-21
599618014676401024,-21
599618014684088192,-16
599618014691775360,-14
599618014699462400,-19
599618014707149568,-19
599618014714836736,-7
599618014722523776,-2
599618014730210944,-11
599618014737897984,-16
599618014745585152,-4
599618014753272320,4
599618014760959360,0
599618014768646528,-9
599618014776333696,-2
599618014784020736,7
599618014791707904,2
599618014799395072,-4
599618014807082112,-4
599618014814769280,-7
599618014822456448,-16
599618014830143488,-7
599618014837830656,21
599618014845517696,33
599618014853204864,28
599618014860892032,38
599618014868579072,42
599618014876266240,23
599618014883953408,16
599618014891640448,21
599618014899327616,16
599618014907014784,19
599618014914701824,26
599618014922388992,28
599618014930076032,33
599618014937763200,28
599618014945450368,9
599618014953137408,-71
599618014960824576,-195
599618014968511744,-121
599618014976198784,334
599618014983885952,847
599618014991573120,781
599618014999260160,117
599618015006947328,-320
599618015014634368,-200
599618015022321536,-52
599618015030008704,-35
599618015037695744,19
599618015045382862,40
599618015053070080,14
599618015060757248,21
599618015068444288,54
599618015076131456,64
599618015083818624,47
599618015091505664,42
599618015099192832,59
599618015106879872,64
599618015114567040,69
599618015122254208,78
599618015129941248,76
599618015137628416,81
599618015145315584,102
599618015153002624,121
599618015160689792,121
599618015168376960,126
599618015176064000,152
599618015183751168,169
599618015191438336,176
599618015199125376,193
599618015206812544,207
599618015214499584,203
599618015222186752,186
599618015229873920,162
599618015237560960,140
599618015245248128,117
599618015252935296,69
599618015260622336,11
599618015268309504,-23
599618015275996672,-35
599618015283683712,-42
599618015291370880,-50
599618015299057920,-54
599618015306745088,-62
599618015314432256,-57
599618015322119296,-38
599618015329806464,-31
599618015337493632,-40
599618015345180672,-40
599618015352867840,-33
599618015360555008,-26
599618015368242048,-23
599618015375929216,-26
599618015383616384,-26
599618015391303424,-26
599618015398990592,-31
599618015406677632,-26
599618015414364800,-14
599618015422051968,-2
599618015429739008,-7
599618015437426176,-14
599618015445113344,-7
599618015452800384,7
599618015460487552,11
599618015468174720,21
599618015475861760,31
599618015483548928,16
599618015491235968,11
599618015498923136,23
599618015506610304,23
599618015514297344,14
599618015521984512,11
599618015529671680,21
599618015537358720,26
599618015545045888,21
599618015552733056,28
599618015560420096,33
599618015568107264,26
599618015575794304,40
599618015583481472,57
599618015591168640,35
599618015598855680,16
599618015606542759,38
599618015614229888,54
599618015621917056,40
599618015629604096,45
599618015637291264,50
599618015644978432,33
599618015652665472,35
599618015660352640,42
599618015668039680,23
599618015675726848,26
599618015683414016,59
599618015691101056,76
599618015698788224,59
599618015706475392,57
599618015714162432,69
599618015721849600,50
599618015729536768,28
599618015737223808,47
599618015744910976,54
599618015752598144,35
599618015760285184,33
599618015767972352,57
599618015775659392,54
599618015783346560,38
599618015791033728,35
599618015798720768,-76
599618015806407936,-257
599618015814095104,-174
599618015821782144,255
599618015829469312,723
599618015837156480,778
599618015844843520,272
599618015852530688,-210
599618015860217728,-198
599618015867904896,-42
599618015875592064,-11
599618015883279104,14
599618015890966272,33
599618015898653440,23
599618015906340480,35
599618015914027648,47
599618015921714816,31
599618015929401856,21
599618015937089024,26
599618015944776192,26
599618015952463232,4
599618015960150400,-2
599618015967837440,42
599618015975524608,62
599618015983211776,74
599618015990898816,117
599618015998585984,117
599618016006273152,117
599618016013960192,169
599618016021647360,176
599618016029334528,157
599618016037021568,193
599618016044708736,222
599618016052395776,198
599618016060082944,200
599618016067770112,212
599618016075457152,186
599618016083144320,160
599618016090831488,138
599618016098518528,88
599618016106205696,47
599618016113892864,23
599618016121579904,-9
599618016129267072,-21
599618016136954240,-28
599618016144641280,-45
599618016152328448,-40
599618016160015488,-33
599618016167702660,-38
599618016175389312,-38
599618016183075968,-26
599618016190762752,-26
599618016198449408,-26
599618016206136064,-16
599618016213822848,-14
599618016221509504,-11
599618016229196288,-14
599618016236882944,-11
599618016244569600,7
599618016252256384,7
599618016259943040,-7
599618016267629696,4
599618016275316480,23
599618016283003136,21
599618016290689920,9
599618016298376576,4
599618016306063232,28
599618016313750016,35
599618016321436672,11
599618016329123328,19
599618016336810112,33
599618016344496768,21
599618016352183552,26
599618016359870208,26
599618016367556864,9
599618016375243648,26
599618016382930304,35
599618016390616960,16
599618016398303744,19
599618016405990400,33
599618016413677184,28
599618016421363840,23
599618016429050496,26
599618016436737280,28
599618016444423936,28
599618016452110592,28
599618016459797376,31
599618016467484032,31
599618016475170816,28
599618016482857472,26
599618016490544128,23
599618016498230912,28
599618016505917568,26
599618016513604224,11
599618016521291008,9
599618016528977664,31
599618016536664448,54
599618016544351104,62
599618016552037760,57
599618016559724544,33
599618016567411200,23
599618016575097856,38
599618016582784640,35
599618016590471296,23
599618016598158080,19
599618016605844736,21
599618016613531392,21
599618016621218176,11
599618016628904832,-4
599618016636591488,-14
599618016644278272,-81
599618016651964928,-246
599618016659651712,-312
599618016667338368,-31
599618016675025024,465
599618016682711808,644
599618016690398464,186
599618016698085120,-346
599618016705771904,-308
599618016713458560,-64
599618016721145344,-23
599618016728832039,4
599618016736519168,62
599618016744206336,50
599618016751893376,40
599618016759580544,69
599618016767267712,74
599618016774954752,66
599618016782641920,81
599618016790328960,95
599618016798016128,93
599618016805703296,95
599618016813390336,97
599618016821077504,107
599618016828764672,124
599618016836451712,126
599618016844138880,124
599618016851826048,143
599618016859513088,157
599618016867200256,164
599618016874887424,183
599618016882574464,200
599618016890261632,203
599618016897948672,200
599618016905635840,207
599618016913323008,205
599618016921010048,186
599618016928697216,164
599618016936384384,126
599618016944071424,76
599618016951758592,40
599618016959445760,11
599618016967132800,-11
599618016974819968,-33
599618016982507008,-45
599618016990194176,-47
599618016997881344,-35
599618017005568384,-38
599618017013255552,-47
599618017020942720,-42
599618017028629760,-35
599618017036316928,-28
599618017044004096,-21
599618017051691136,-28
599618017059378304,-35
599618017067065472,-28
599618017074752512,-19
599618017082439680,-19
599618017090126720,-19
599618017097813888,-16
599618017105501056,-9
599618017113188096,-4
599618017120875264,-2
599618017128562432,-2
599618017136249472,-2
599618017143936640,2
599618017151623808,11
599618017159310848,9
599618017166998016,-2
599618017174685056,-2
599618017182372224,2
599618017190059392,2
599618017197746432,7
599618017205433600,11
599618017213120768,7
599618017220807808,4
599618017228494976,2
599618017236182144,0
599618017243869184,4
599618017251556352,7
599618017259243392,9
599618017266930560,7
599618017274617728,-4
599618017282304768,-14
599618017289991936,0
599618017297679104,19
599618017305366272,11
599618017313053312,4
599618017320740480,11
599618017328427648,14
599618017336114688,9
599618017343801856,14
599618017351488896,16
599618017359176064,11
599618017366863232,9
599618017374550272,11
599618017382237440,14
599618017389924608,11
599618017397611648,7
599618017405298816,16
599618017412985984,21
599618017420673024,14
599618017428360192,14
599618017436047360,16
599618017443734400,14
599618017451421568,16
599618017459108608,23
599618017466795776,26
599618017474482944,19
599618017482169984,14
599618017489857152,23
599618017497544320,23
599618017505231360,19
599618017512918528,21
599618017520605696,23
599618017528292736,23
599618017535979904,23
599618017543666944,26
599618017551354112,23
599618017559041280,16
599618017566728320,11
599618017574415488,19
599618017582102656,38
599618017589789696,45
599618017597476864,50
599618017605164032,62
599618017612851072,57
599618017620538240,38
599618017628225408,23
599618017635912448,23
599618017643599616,26
599618017651286656,28
599618017658973824,28
599618017666660992,28
599618017674348032,31
599618017682035200,28
599618017689722368,14
599618017697409408,-54
599618017705096576,-181
599618017712783744,-183
599618017720470784,171
599618017728157952,735
599618017735844992,914
599618017743532160,415
599618017751219328,-179
599618017758906368,-253
599618017766593536,-88
599618017774280704,-42
599618017781967744,-9
599618017789654912,26
599618017797342080,11
599618017805029120,9
599618017812716288,28
599618017820403328,33
599618017828090496,33
599618017835777664,38
599618017843464704,45
599618017851151833,47
599618017858839040,52
599618017866526208,62
599618017874213248,66
599618017881900416,66
599618017889587584,76
599618017897274624,85
599618017904961792,93
599618017912648832,105
599618017920336000,121
599618017928023168,136
599618017935710208,143
599618017943397376,148
599618017951084544,160
599618017958771584,164
599618017966458752,157
599618017974145920,145
599618017981832960,131
599618017989520128,109
599618017997207296,74
599618018004894336,38
599618018012581504,9
599618018020268544,-16
599618018027955712,-38
599618018035642880,-47
599618018043329920,-47
599618018051017088,-50
599618018058704256,-52
599618018066391296,-52
599618018074078464,-45
599618018081765632,-40
599618018089452672,-45
599618018097139840,-40
599618018104826880,-33
599618018112514048,-33
599618018120201216,-28
599618018127888256,-23
599618018135575424,-23
599618018143262592,-23
599618018150949632,-16
599618018158636800,-14
599618018166323968,-21
599618018174011008,-16
599618018181698176,-4
599618018189385344,-2
599618018197072384,-2
599618018204759552,0
599618018212446592,-2
599618018220133760,-2
599618018227820928,2
599618018235507968,-2
599618018243195136,-7
599618018250882304,11
599618018258569344,28
599618018266256512,19
599618018273943680,9
599618018281630720,14
599618018289317888,7
599618018297004928,0
599618018304692096,9
599618018312379264,9
599618018320066304,4
599618018327753472,9
599618018335440640,9
599618018343127680,4
599618018350814848,7
599618018358502016,7
599618018366189056,7
599618018373876224,11
599618018381563264,11
599618018389250432,9
599618018396937600,14
599618018404624640,19
599618018412311730,14
599618018419998848,19
599618018427686016,23
599618018435373056,21
599618018443060224,21
599618018450747392,19
599618018458434432,19
599618018466121600,23
599618018473808640,23
599618018481495808,16
599618018489182976,16
599618018496870016,19
599618018504557184,14
599618018512244352,11
599618018519931392,16
599618018527618560,16
599618018535305728,16
599618018542992768,21
599618018550679936,16
599618018558367104,14
599618018566054144,19
599618018573741312,19
599618018581428352,21
599618018589115520,31
599618018596802688,33
599618018604489728,28
599618018612176896,21
599618018619864064,14
599618018627551104,9
599618018635238272,11
599618018642925440,16
599618018650612480,19
599618018658299648,19
599618018665986688,26
599618018673673856,40
599618018681361024,52
599618018689048064,57
599618018696735232,54
599618018704422400,47
599618018712109440,38
599618018719796608,38
599618018727483776,38
599618018735170816,35
599618018742857984,38
599618018750545152,40
599618018758232192,35
599618018765919360,26
599618018773606400,23
599618018781293568,-9
599618018788980736,-136
599618018796667776,-219
599618018804354944,40
599618018812042112,618
599618018819729152,998
599618018827416320,675
599618018835103488,-28
599618018842790528,-293
599618018850477696,-131
599618018858164736,-45
599618018865851904,-35
599618018873539072,11
599618018881226112,14
599618018888913280,-4
599618018896600448,9
599618018904287488,21
599618018911974656,19
599618018919661824,21
599618018927348864,31
599618018935036032,38
599618018942723072,40
599618018950410240,45
599618018958097408,50
599618018965784448,62
599618018973471627,71
599618018981158784,78
599618018988845952,88
599618018996532992,97
599618019004220160,107
599618019011907328,121
599618019019594368,133
599618019027281536,140
599618019034968576,145
599618019042655744,155
599618019050342912,157
599618019058029952,150
599618019065717120,140
599618019073404288,117
599618019081091328,81
599618019088778496,50
599618019096465664,21
599618019104152704,-14
599618019111839872,-35
599618019119527040,-47
599618019127214080,-59
599618019134901248,-64
599618019142588288,-64
599618019150275456,-64
599618019157962624,-62
599618019165649664,-59
599618019173336832,-57
599618019181024000,-52
599618019188711040,-50
599618019196398208,-47
599618019204085376,-45
599618019211772416,-40
599618019219459584,-33
599618019227146624,-33
599618019234833792,-40
599618019242520960,-59
599618019250208000,-71
599618019257895168,-42
599618019265582336,-14
599618019273269376,-14
599618019280956544,-14
599618019288643712,-4
599618019296330752,-2
599618019304017920,-4
599618019311705088,-2
599618019319392128,-2
599618019327079296,-2
599618019334766336,-2
599618019342453504,-4
599618019350140672,-7
599618019357827712,0
599618019365514880,2
599618019373202048,2
599618019380889088,2
599618019388576256,2
599618019396263424,2
599618019403950464,4
599618019411637632,4
599618019419324672,4
599618019427011840,4
599618019434699008,9
599618019442386048,9
599618019450073216,7
599618019457760384,4
599618019465447424,7
599618019473134592,11
599618019480821760,11
599618019488508800,7
599618019496195968,7
599618019503883008,11
599618019511570176,11
599618019519257344,11
599618019526944384,11
599618019534631524,14
599618019542318720,14
599618019550005888,14
599618019557692928,14
599618019565380096,11
599618019573067264,16
599618019580754304,14
599618019588441472,14
599618019596128512,16
599618019603815680,19
599618019611502848,16
599618019619189888,19
599618019626877056,19
599618019634564224,23
599618019642251264,31
599618019649938432,23
599618019657625600,16
599618019665312640,16
599618019672999808,14
599618019680686976,9
599618019688374016,4
599618019696061184,0
599618019703748224,7
599618019711435392,26
599618019719122560,35
599618019726809600,42
599618019734496768,52
599618019742183936,47
599618019749870976,21
599618019757558144,11
599618019765245312,21
599618019772932352,31
599618019780619520,23
599618019788306560,21
599618019795993728,23
599618019803680896,23
599618019811367936,23
599618019819055104,7
599618019826742272,-83
599618019834429312,-219
599618019842116480,-148
599618019849803648,329
599618019857490688,926
599618019865177856,979
599618019872865024,317
599618019880552064,-262
599618019888239232,-229
599618019895926272,-62
599618019903613440,-57
599618019911300608,-28
599618019918987648,7
599618019926674816,-4
599618019934361984,-2
599618019942049024,19
599618019949736192,19
599618019957423360,16
599618019965110400,23
599618019972797568,31
599618019980484608,33
599618019988171776,40
599618019995858944,45
599618020003545984,47
599618020011233152,57
599618020018920320,66
599618020026607360,76
599618020034294528,85
599618020041981696,102
599618020049668736,114
599618020057355904,124
599618020065043072,140
599618020072730112,160
599618020080417280,169
599618020088104320,171
599618020095791425,169
599618020103478656,160
599618020111165824,148
599618020118852864,126
599618020126540032,93
599618020134227200,52
599618020141914240,11
599618020149601408,-16
599618020157288448,-35
599618020164975616,-50
599618020172662784,-57
599618020180349824,-66
599618020188036992,-71
599618020195724160,-66
599618020203411200,-62
599618020211098368,-59
599618020218785536,-57
599618020226472576,-54
599618020234159744,-50
599618020241846912,-45
599618020249533952,-45
599618020257221120,-40
599618020264908160,-35
599618020272595328,-31
599618020280282496,-31
599618020287969536,-28
599618020295656704,-23
599618020303343872,-19
599618020311030912,-14
599618020318718080,-11
599618020326405248,-9
599618020334092288,-7
599618020341779456,-7
599618020349466496,-7
599618020357153664,2
599618020364840832,11
599618020372527872,9
599618020380215040,-2
599618020387902208,-2
599618020395589248,4
599618020403276416,0
599618020410963584,-4
599618020418650624,0
599618020426337792,4
599618020434024960,7
599618020441712000,2
599618020449399168,0
599618020457086208,2
599618020464773376,4
599618020472460544,4
599618020480147584,4
599618020487834752,7
599618020495521920,7
599618020503208960,7
599618020510896128,9
599618020518583296,9
599618020526270336,9
599618020533957504,11
599618020541644544,16
599618020549331712,16
599618020557018880,14
599618020564705920,11
599618020572393088,11
599618020580080256,16
599618020587767296,19
599618020595454464,14
599618020603141632,11
599618020610828672,14
599618020618515840,16
599618020626202880,16
599618020633890048,16
599618020641577216,19
599618020649264256,19
599618020656951322,19
599618020664638464,19
599618020672325632,21
599618020680012672,21
599618020687699840,19
599618020695387008,11
599618020703074048,0
599618020710761216,-4
599618020718448256,4
599618020726135424,21
599618020733822592,33
599618020741509632,40
599618020749196800,47
599618020756883968,42
599618020764571008,23
599618020772258176,14
599618020779945344,21
599618020787632384,26
599618020795319552,23
599618020803006720,21
599618020810693760,23
599618020818380928,28
599618020826067968,26
599618020833755136,-11
599618020841442304,-124
599618020849129344,-226
599618020856816512,-35
599618020864503680,537
599618020872190720,1050
599618020879877888,864
599618020887565056,109
599618020895252096,-305
599618020902939264,-169
599618020910626304,-45
599618020918313472,-52
599618020926000640,-14
599618020933687680,4
599618020941374848,-9
599618020949062016,-2
599618020956749056,14
599618020964436224,14
599618020972123392,16
599618020979810432,23
599618020987497600,28
599618020995184768,31
599618021002871808,38
599618021010558976,42
599618021018246016,45
599618021025933184,54
599618021033620352,62
599618021041307392,71
599618021048994560,85
599618021056681728,97
599618021064368768,112
599618021072055936,126
599618021079743104,143
599618021087430144,152
599618021095117312,164
599618021102804352,169
599618021110491520,167
599618021118178688,155
599618021125865728,136
599618021133552896,109
599618021141240064,76
599618021148927104,38
599618021156614272,2
599618021164301440,-26
599618021171988480,-45
599618021179675648,-57
599618021187362688,-66
599618021195049856,-71
599618021202737024,-66
599618021210424064,-64
599618021218111219,-62
599618021225798400,-59
599618021233485568,-57
599618021241172608,-50
599618021248859776,-47
599618021256546944,-47
599618021264233984,-42
599618021271921152,-40
599618021279608192,-40
599618021287295360,-35
599618021294982528,-28
599618021302669568,-26
599618021310356736,-23
599618021318043904,-19
599618021325730944,-16
599618021333418112,-14
599618021341105280,-11
599618021348792320,-9
599618021356479488,-9
599618021364166656,-7
599618021371853696,-4
599618021379540864,-4
599618021387227904,-7
599618021394915072,-4
599618021402602240,-4
599618021410289280,-4
599618021417976448,-4
599618021425663616,-2
599618021433350656,0
599618021441037824,0
599618021448724992,0
599618021456412032,-4
599618021464099200,-2
599618021471786240,4
599618021479473408,4
599618021487160576,2
599618021494847616,4
599618021502534784,4
599618021510221952,4
599618021517908992,4
599618021525596160,4
599618021533283328,7
599618021540970368,9
599618021548657536,7
599618021556344704,4
599618021564031744,7
599618021571718912,9
599618021579405952,7
599618021587093120,7
599618021594780288,11
599618021602467328,11
599618021610154496,11
599618021617841664,11
599618021625528704,14
599618021633215872,14
599618021640903040,14
599618021648590080,14
599618021656277248,11
599618021663964288,16
599618021671651456,16
599618021679338624,11
599618021687025664,9
599618021694712832,4
599618021702400000,-4
599618021710087040,-11
599618021717774208,0
599618021725461376,19
599618021733148416,33
599618021740835584,42
599618021748522624,47
599618021756209792,38
599618021763896960,21
599618021771584000,11
599618021779271116,14
599618021786958208,19
599618021794645248,16
599618021802332288,14
599618021810019328,16
599618021817706368,21
599618021825393408,19
599618021833080576,-26
599618021840767616,-155
599618021848454656,-236
599618021856141696,21
599618021863828736,642
599618021871515776,1108
599618021879202816,792
599618021886889856,0
599618021894576896,-322
599618021902263936,-143
599618021909951104,-52
599618021917638144,-59
599618021925325184,-21
599618021933012224,-7
599618021940699264,-21
599618021948386304,-7
599618021956073344,4
599618021963760384,2
599618021971447424,11
599618021979134464,23
599618021986821504,19
599618021994508672,19
599618022002195712,31
599618022009882752,42
599618022017569792,50
599618022025256832,54
599618022032943872,64
599618022040630912,76
599618022048317952,88
599618022056004992,100
599618022063692032,119
599618022071379200,136
599618022079066240,150
599618022086753280,164
599618022094440320,176
599618022102127360,179
599618022109814400,174
599618022117501440,167
599618022125188480,148
599618022132875520,121
599618022140562560,83
599618022148249600,31
599618022155936768,-4
599618022163623808,-26
599618022171310848,-50
599618022178997888,-69
599618022186684928,-74
599618022194371968,-76
599618022202059008,-71
599618022209746048,-66
599618022217433088,-71
599618022225120128,-66
599618022232807296,-62
599618022240494336,-57
599618022248181376,-52
599618022255868416,-45
599618022263555456,-47
599618022271242496,-47
599618022278929536,-35
599618022286616576,-28
599618022294303616,-28
599618022301990656,-23
599618022309677824,-21
599618022317364864,-16
599618022325051904,-14
599618022332738944,-11
599618022340425930,-14
599618022348113152,-11
599618022355800320,-7
599618022363487488,-4
599618022371174784,0
599618022378861952,-4
599618022386549120,-9
599618022394236288,-9
599618022401923456,-4
599618022409610624,0
599618022417297920,0
599618022424985088,-4
599618022432672256,0
599618022440359424,4
599618022448046592,0
599618022455733888,-2
599618022463421056,2
599618022471108224,4
599618022478795392,0
599618022486482560,2
599618022494169728,11
599618022501857024,11
599618022509544192,7
599618022517231360,4
599618022524918528,9
599618022532605696,14
599618022540292992,11
599618022547980160,9
599618022555667328,16
599618022563354496,16
599618022571041664,9
599618022578728960,11
599618022586416128,14
599618022594103296,14
599618022601790464,14
599618022609477632,16
599618022617164800,11
599618022624852096,14
599618022632539264,19
599618022640226432,14
599618022647913600,7
599618022655600768,2
599618022663288064,-2
599618022670975232,4
599618022678662400,21
599618022686349568,33
599618022694036736,40
599618022701723904,50
599618022709411200,40
599618022717098368,21
599618022724785536,14
599618022732472704,19
599618022740159872,19
599618022747847168,14
599618022755534336,16
599618022763221504,19
599618022770908672,19
599618022778595840,21
599618022786283008,-4
599618022793970304,-109
599618022801657472,-229
599618022809344640,-78
599618022817031808,468
599618022824718976,1003
599618022832406272,852
599618022840093440,69
599618022847780608,-391
599618022855467776,-231
599618022863154944,-81
599618022870842240,-69
599618022878529408,2
599618022886216576,19
599618022893903744,-14
599618022901590914,11
599618022909277696,35
599618022916964480,21
599618022924651264,26
599618022932338048,50
599618022940024832,47
599618022947711616,38
599618022955398400,47
599618022963085056,62
599618022970771840,69
599618022978458624,76
599618022986145408,88
599618022993832192,100
599618023001518976,114
599618023009205760,128
599618023016892544,138
599618023024579328,152
599618023032266112,176
599618023039952896,191
599618023047639680,193
599618023055326336,205
599618023063013120,207
599618023070699904,193
599618023078386688,171
599618023086073472,143
599618023093760256,97
599618023101447040,50
599618023109133824,9
599618023116820608,-23
599618023124507392,-54
599618023132194176,-71
599618023139880960,-78
599618023147567616,-81
599618023155254400,-78
599618023162941184,-71
599618023170627968,-76
599618023178314752,-74
599618023186001536,-62
599618023193688320,-62
599618023201375104,-66
599618023209061888,-54
599618023216748672,-42
599618023224435456,-45
599618023232122240,-45
599618023239808896,-38
599618023247495680,-38
599618023255182464,-35
599618023262869248,-28
599618023270556032,-23
599618023278242816,-21
599618023285929600,-16
599618023293616384,-14
599618023301303168,-11
599618023308989952,4
599618023316676736,23
599618023324363520,9
599618023332050176,-2
599618023339736960,40
599618023347423744,42
599618023355110528,-9
599618023362797312,-14
599618023370484096,0
599618023378170880,-9
599618023385857664,-11
599618023393544448,-7
599618023401231232,-11
599618023408918016,-7
599618023416604800,-7
599618023424291584,-7
599618023431978240,-2
599618023439665024,-2
599618023447351808,-7
599618023455038592,-7
599618023462725380,-2
599618023470412544,4
599618023478099712,2
599618023485786880,-4
599618023493474176,-2
599618023501161344,0
599618023508848512,0
599618023516535680,-2
599618023524222848,0
599618023531910016,0
599618023539597312,2
599618023547284480,-2
599618023554971648,-11
599618023562658816,-11
599618023570345984,7
599618023578033280,23
599618023585720448,23
599618023593407616,28
599618023601094784,40
599618023608781952,26
599618023616469120,4
599618023624156416,4
599618023631843584,16
599618023639530752,14
599618023647217920,0
599618023654905088,7
599618023662592384,16
599618023670279552,14
599618023677966720,4
599618023685653888,-38
599618023693341056,-160
599618023701028352,-226
599618023708715520,52
599618023716402688,649
599618023724089856,991
599618023731777024,556
599618023739464192,-198
599618023747151488,-377
599618023754838656,-152
599618023762525824,-78
599618023770212992,-45
599618023777900160,21
599618023785587456,9
599618023793274624,-4
599618023800961792,23
599618023808648960,31
599618023816336128,23
599618023824023296,33
599618023831710592,45
599618023839397760,47
599618023847084928,50
599618023854772096,57
599618023862459264,64
599618023870146560,78
599618023877833728,83
599618023885520896,85
599618023893208064,100
599618023900895232,119
599618023908582400,133
599618023916269696,152
599618023923956864,169
599618023931644032,179
599618023939331200,193
599618023947018368,203
599618023954705664,203
599618023962392832,203
599618023970080000,188
599618023977767168,160
599618023985454336,121
599618023993141632,71
599618024000828800,23
599618024008515968,-19
599618024016203136,-45
599618024023890364,-57
599618024031577344,-74
599618024039264384,-90
599618024046951296,-85
599618024054638336,-71
599618024062325248,-74
599618024070012288,-76
599618024077699200,-74
599618024085386240,-78
599618024093073152,-78
599618024100760192,-83
599618024108447232,-81
599618024116134144,-57
599618024123821184,-42
599618024131508096,-45
599618024139195136,-40
599618024146882048,-38
599618024154569088,-35
599618024162256000,-23
599618024169943040,-16
599618024177629952,-14
599618024185316992,-19
599618024193004032,-26
599618024200690944,-16
599618024208377984,-9
599618024216064896,-11
599618024223751936,-9
599618024231438848,-4
599618024239125888,-16
599618024246812800,-16
599618024254499840,-2
599618024262186880,0
599618024269873792,-4
599618024277560832,-11
599618024285247744,-14
599618024292934784,2
599618024300621696,4
599618024308308736,-7
599618024315995648,-4
599618024323682688,2
599618024331369600,2
599618024339056640,0
599618024346743680,-2
599618024354430592,7
599618024362117632,14
599618024369804544,2
599618024377491584,-2
599618024385178496,-2
599618024392865536,-14
599618024400552448,-14
599618024408239488,14
599618024415926528,31
599618024423613440,19
599618024431300480,28
599618024438987392,45
599618024446674432,26
599618024454361344,16
599618024462048384,23
599618024469735296,11
599618024477422336,11
599618024485109248,26
599618024492796288,16
599618024500483328,4
599618024508170240,14
599618024515857280,21
599618024523544192,-26
599618024531231232,-145
599618024538918144,-214
599618024546605184,28
599618024554292096,597
599618024561979136,945
599618024569666176,549
599618024577353088,-160
599618024585040087,-346
599618024592727168,-140
599618024600414208,-62
599618024608101120,-33
599618024615788160,19
599618024623475072,16
599618024631162112,7
599618024638849024,28
599618024646536064,42
599618024654222976,35
599618024661910016,33
599618024669597056,42
599618024677283968,47
599618024684971008,57
599618024692657920,69
599618024700344960,69
599618024708031872,74
599618024715718912,88
599618024723405824,97
599618024731092864,102
599618024738779776,112
599618024746466816,133
599618024754153856,152
599618024761840768,162
599618024769527808,181
599618024777214720,200
599618024784901760,203
599618024792588672,203
599618024800275712,198
599618024807962624,183
599618024815649664,152
599618024823336704,112
599618024831023616,66
599618024838710656,16
599618024846397568,-26
599618024854084608,-52
599618024861771520,-62
599618024869458560,-69
599618024877145472,-81
599618024884832512,-81
599618024892519424,-69
599618024900206464,-78
599618024907893504,-81
599618024915580416,-59
599618024923267456,-59
599618024930954368,-69
599618024938641408,-59
599618024946328320,-45
599618024954015360,-42
599618024961702272,-52
599618024969389312,-42
599618024977076352,-31
599618024984763264,-31
599618024992450304,-26
599618025000137216,-19
599618025007824256,-14
599618025015511168,-19
599618025023198208,-23
599618025030885120,-9
599618025038572160,0
599618025046259200,-9
599618025053946112,-21
599618025061633152,-7
599618025069320064,7
599618025077007104,-2
599618025084694016,-11
599618025092381056,-7
599618025100067968,0
599618025107755008,0
599618025115441920,0
599618025123128960,2
599618025130816000,4
599618025138502912,2
599618025146189814,0
599618025153876608,9
599618025161563392,9
599618025169250304,-2
599618025176937088,11
599618025184624000,21
599618025192310784,7
599618025199997696,0
599618025207684480,11
599618025215371392,19
599618025223058176,9
599618025230745088,0
599618025238431872,4
599618025246118784,14
599618025253805568,7
599618025261492352,-7
599618025269179264,-4
599618025276866048,14
599618025284552960,28
599618025292239744,33
599618025299926656,45
599618025307613440,45
599618025315300352,23
599618025322987136,16
599618025330674048,26
599618025338360832,19
599618025346047744,16
599618025353734528,28
599618025361421312,26
599618025369108224,19
599618025376795008,23
599618025384481920,19
599618025392168704,-28
599618025399855616,-152
599618025407542400,-205
599618025415229312,95
599618025422916096,661
599618025430603008,912
599618025438289792,460
599618025445976704,-176
599618025453663488,-291
599618025461350272,-107
599618025469037184,-42
599618025476723968,-9
599618025484410880,33
599618025492097664,33
599618025499784576,26
599618025507471360,23
599618025515158272,28
599618025522845056,59
599618025530531968,69
599618025538218752,50
599618025545905664,54
599618025553592448,64
599618025561279232,62
599618025568966144,74
599618025576652928,90
599618025584339840,95
599618025592026624,100
599618025599713536,105
599618025607400320,117
599618025615087232,140
599618025622774016,157
599618025630460928,171
599618025638147712,181
599618025645834624,188
599618025653521408,205
599618025661208192,203
599618025668895104,183
599618025676581888,174
599618025684268800,164
599618025691955584,117
599618025699642496,47
599618025707329363,11
599618025715016576,-9
599618025722703744,-42
599618025730390784,-66
599618025738077952,-76
599618025745765120,-74
599618025753452160,-59
599618025761139328,-54
599618025768826368,-64
599618025776513536,-64
599618025784200704,-57
599618025791887744,-59
599618025799574912,-47
599618025807262080,-40
599618025814949120,-50
599618025822636288,-45
599618025830323456,-23
599618025838010496,-26
599618025845697664,-35
599618025853384832,-31
599618025861071872,-19
599618025868759040,-19
599618025876446080,-11
599618025884133248,-4
599618025891820416,-4
599618025899507456,-4
599618025907194624,4
599618025914881792,0
599618025922568832,-9
599618025930256000,-9
599618025937943168,2
599618025945630208,7
599618025953317376,0
599618025961004416,7
599618025968691584,11
599618025976378752,2
599618025984065792,0
599618025991752960,2
599618025999440128,0
599618026007127168,0
599618026014814336,7
599618026022501504,11
599618026030188544,7
599618026037875712,4
599618026045562880,9
599618026053249920,7
599618026060937088,9
599618026068624128,21
599618026076311296,21
599618026083998464,4
599618026091685504,11
599618026099372672,21
599618026107059840,9
599618026114746880,14
599618026122434048,16
599618026130121216,7
599618026137808256,11
599618026145495424,14
599618026153182464,19
599618026160869632,23
599618026168556800,14
599618026176243840,9
599618026183931008,9
599618026191618176,21
599618026199305216,21
599618026206992384,0
599618026214679552,2
599618026222366592,31
599618026230053760,38
599618026237740800,40
599618026245427968,45
599618026253115136,38
599618026260802176,28
599618026268489260,23
599618026276176384,28
599618026283863552,26
599618026291550592,19
599618026299237760,26
599618026306924928,28
599618026314611968,19
599618026322299136,23
599618026329986176,23
599618026337673344,-54
599618026345360512,-191
599618026353047552,-169
599618026360734720,217
599618026368421888,759
599618026376108928,867
599618026383796096,320
599618026391483264,-238
599618026399170304,-241
599618026406857472,-64
599618026414544640,-38
599618026422231680,-14
599618026429918848,23
599618026437605888,19
599618026445293056,23
599618026452980224,33
599618026460667264,33
599618026468354432,38
599618026476041600,45
599618026483728640,52
599618026491415808,52
599618026499102976,52
599618026506790016,59
599618026514477184,66
599618026522164224,74
599618026529851392,88
599618026537538560,90
599618026545225600,95
599618026552912768,119
599618026560599936,136
599618026568286976,136
599618026575974144,155
599618026583661312,176
599618026591348352,179
599618026599035520,188
599618026606722688,193
599618026614409728,181
599618026622096896,164
599618026629783936,131
599618026637471104,93
599618026645158272,57
599618026652845312,9
599618026660532480,-28
599618026668219648,-40
599618026675906688,-50
599618026683593856,-64
599618026691281024,-64
599618026698968064,-62
599618026706655232,-69
599618026714342272,-59
599618026722029440,-47
599618026729716608,-52
599618026737403648,-52
599618026745090816,-47
599618026752777984,-42
599618026760465024,-42
599618026768152192,-45
599618026775839360,-38
599618026783526400,-26
599618026791213568,-26
599618026798900736,-28
599618026806587776,-19
599618026814274944,-16
599618026821961984,-19
599618026829649161,-9
599618026837335936,0
599618026845022720,-2
599618026852709632,-4
599618026860396416,-2
599618026868083328,-2
599618026875770112,-4
599618026883457024,-2
599618026891143808,0
599618026898830720,2
599618026906517504,4
599618026914204416,0
599618026921891200,-4
599618026929578112,0
599618026937264896,7
599618026944951680,2
599618026952638592,-2
599618026960325376,9
599618026968012288,9
599618026975699072,0
599618026983385984,4
599618026991072768,11
599618026998759680,9
599618027006446464,7
599618027014133376,11
599618027021820160,16
599618027029507072,9
599618027037193856,0
599618027044880640,-2
599618027052567552,-9
599618027060254336,0
599618027067941248,16
599618027075628032,16
599618027083314944,11
599618027091001728,14
599618027098688640,19
599618027106375424,19
599618027114062336,19
599618027121749120,23
599618027129436032,26
599618027137122816,21
599618027144809600,11
599618027152496512,16
599618027160183296,26
599618027167870208,26
599618027175556992,38
599618027183243904,57
599618027190930688,38
599618027198617600,16
599618027206304384,26
599618027213991296,31
599618027221678080,21
599618027229364992,21
599618027237051776,28
599618027244738688,26
599618027252425472,19
599618027260112256,16
599618027267799168,16
599618027275485952,9
599618027283172864,-4
599618027290859648,4
599618027298546560,31
599618027306233344,45
599618027313920256,50
599618027321607040,47
599618027329293952,40
599618027336980736,33
599618027344667648,28
599618027352354432,23
599618027360041216,21
599618027367728128,26
599618027375414912,28
599618027383101824,23
599618027390788714,23
599618027398475904,28
599618027406163072,11
599618027413850240,-83
599618027421537536,-203
599618027429224704,-112
599618027436911872,348
599618027444599040,867
599618027452286208,843
599618027459973376,195
599618027467660672,-296
599618027475347840,-210
599618027483035008,-52
599618027490722176,-47
599618027498409344,-9
599618027506096640,23
599618027513783808,4
599618027521470976,7
599618027529158144,31
599618027536845312,33
599618027544532480,23
599618027552219776,35
599618027559906944,47
599618027567594112,40
599618027575281280,40
599618027582968448,54
599618027590655744,57
599618027598342912,59
599618027606030080,76
599618027613717248,85
599618027621404416,90
599618027629091712,105
599618027636778880,121
599618027644466048,131
599618027652153216,145
599618027659840384,164
599618027667527552,169
599618027675214848,171
599618027682902016,176
599618027690589184,169
599618027698276352,148
599618027705963520,126
599618027713650816,95
599618027721337984,57
599618027729025152,21
599618027736712320,-16
599618027744399488,-45
599618027752086656,-50
599618027759773952,-52
599618027767461120,-69
599618027775148288,-76
599618027782835456,-66
599618027790522624,-57
599618027798209920,-52
599618027805897088,-54
599618027813584256,-54
599618027821271424,-47
599618027828958592,-45
599618027836645760,-45
599618027844333056,-40
599618027852020224,-35
599618027859707392,-33
599618027867394560,-31
599618027875081728,-23
599618027882769024,-21
599618027890456192,-19
599618027898143360,-11
599618027905830528,-9
599618027913517696,-11
599618027921204992,-7
599618027928892160,-7
599618027936579328,-14
599618027944266496,-9
599618027951953698,2
599618027959640832,-2
599618027967328000,-9
599618027975015168,-2
599618027982702464,0
599618027990389632,-2
599618027998076800,-2
599618028005763968,-4
599618028013451136,0
599618028021138304,4
599618028028825600,0
599618028036512768,0
599618028044199936,2
599618028051887104,4
599618028059574272,2
599618028067261568,0
599618028074948736,4
599618028082635904,9
599618028090323072,2
599618028098010240,0
599618028105697408,9
599618028113384704,11
599618028121071872,4
599618028128759040,7
599618028136446208,9
599618028144133376,9
599618028151820672,7
599618028159507840,9
599618028167195008,14
599618028174882176,9
599618028182569344,7
599618028190256640,9
599618028197943808,9
599618028205630976,11
599618028213318144,19
599618028221005312,14
599618028228692480,9
599618028236379776,9
599618028244066944,14
599618028251754112,14
599618028259441280,11
599618028267128448,14
599618028274815744,16
599618028282502912,16
599618028290190080,14
599618028297877248,11
599618028305564416,9
599618028313251584,7
599618028320938880,-2
599618028328626048,-2
599618028336313216,21
599618028344000384,40
599618028351687552,42
599618028359374848,45
599618028367062016,42
599618028374749184,26
599618028382436352,21
599618028390123520,23
599618028397810688,19
599618028405497984,14
599618028413185152,23
599618028420872320,26
599618028428559488,21
599618028436246656,19
599618028443933952,0
599618028451621120,-88
599618028459308288,-217
599618028466995456,-128
599618028474682624,370
599618028482369920,950
599618028490057088,941
599618028497744256,257
599618028505431424,-272
599618028513118682,-210
599618028520805504,-57
599618028528492288,-57
599618028536179200,-26
599618028543865984,4
599618028551552896,-11
599618028559239680,-7
599618028566926592,14
599618028574613376,16
599618028582300288,14
599618028589987072,16
599618028597673984,26
599618028605360768,28
599618028613047680,31
599618028620734464,35
599618028628421248,45
599618028636108160,54
599618028643794944,62
599618028651481856,74
599618028659168640,85
599618028666855552,93
599618028674542336,102
599618028682229248,119
599618028689916032,140
599618028697602944,157
599618028705289728,167
599618028712976640,174
599618028720663424,174
599618028728350208,167
599618028736037120,150
599618028743723904,119
599618028751410816,81
599618028759097600,40
599618028766784512,0
599618028774471296,-33
599618028782158208,-50
599618028789844992,-57
599618028797531904,-66
599618028805218688,-74
599618028812905600,-71
599618028820592384,-66
599618028828279168,-62
599618028835966080,-59
599618028843652864,-57
599618028851339776,-54
599618028859026560,-52
599618028866713472,-45
599618028874400256,-42
599618028882087168,-40
599618028889773952,-40
599618028897460864,-38
599618028905147648,-33
599618028912834560,-28
599618028920521344,-23
599618028928208128,-21
599618028935895040,-19
599618028943581824,-14
599618028951268736,-9
599618028958955520,-11
599618028966642432,-7
599618028974329216,-4
599618028982016128,-7
599618028989702912,-4
599618028997389824,-2
599618029005076608,-4
599618029012763520,0
599618029020450304,2
599618029028137088,0
599618029035824000,0
599618029043510784,0
599618029051197696,-2
599618029058884480,0
599618029066571392,2
599618029074258231,2
599618029081945344,0
599618029089632512,0
599618029097319552,4
599618029105006720,9
599618029112693888,7
599618029120380928,4
599618029128068096,7
599618029135755136,7
599618029143442304,7
599618029151129472,11
599618029158816512,9
599618029166503680,4
599618029174190848,9
599618029181877888,14
599618029189565056,7
599618029197252224,4
599618029204939264,11
599618029212626432,14
599618029220313600,11
599618029228000640,11
599618029235687808,14
599618029243374848,14
599618029251062016,14
599618029258749184,14
599618029266436224,14
599618029274123392,9
599618029281810560,9
599618029289497600,9
599618029297184768,11
599618029304871936,4
599618029312558976,-7
599618029320246144,-2
599618029327933184,16
599618029335620352,31
599618029343307520,35
599618029350994560,47
599618029358681728,45
599618029366368896,23
599618029374055936,11
599618029381743104,16
599618029389430272,19
599618029397117312,16
599618029404804480,19
599618029412491648,23
599618029420178688,23
599618029427865856,19
599618029435552896,-7
599618029443240064,-109
599618029450927232,-226
599618029458614272,-88
599618029466301440,449
599618029473988608,1010
599618029481675648,926
599618029489362816,191
599618029497049984,-305
599618029504737024,-203
599618029512424192,-57
599618029520111232,-59
599618029527798400,-28
599618029535485568,2
599618029543172608,-11
599618029550859776,-11
599618029558546944,7
599618029566233984,11
599618029573921152,14
599618029581608320,19
599618029589295360,23
599618029596982528,26
599618029604669568,28
599618029612356736,35
599618029620043904,47
599618029627730944,54
599618029635418128,59
599618029643105280,69
599618029650792448,81
599618029658479488,97
599618029666166656,117
599618029673853824,128
599618029681540864,143
599618029689228032,157
599618029696915072,171
599618029704602240,179
599618029712289408,176
599618029719976448,169
599618029727663616,157
599618029735350784,131
599618029743037824,97
599618029750724992,57
599618029758412160,14
599618029766099200,-19
599618029773786368,-42
599618029781473536,-62
599618029789160576,-69
599618029796847744,-69
599618029804534784,-71
599618029812221952,-76
599618029819909120,-71
599618029827596160,-69
599618029835283328,-64
599618029842970496,-59
599618029850657536,-54
599618029858344704,-52
599618029866031872,-50
599618029873718912,-45
599618029881406080,-45
599618029889093120,-38
599618029896780288,-33
599618029904467456,-33
599618029912154496,-31
599618029919841664,-23
599618029927528832,-21
599618029935215872,-19
599618029942903040,-16
599618029950590208,-14
599618029958277248,-9
599618029965964416,-7
599618029973651584,-11
599618029981338624,-11
599618029989025792,-7
599618029996712832,-4
599618030004400000,-4
599618030012087168,-4
599618030019774208,-4
599618030027461376,-4
599618030035148544,0
599618030042835584,0
599618030050522752,-2
599618030058209920,0
599618030065896960,0
599618030073584128,-2
599618030081271168,-2
599618030088958336,2
599618030096645504,4
599618030104332544,2
599618030112019712,0
599618030119706880,2
599618030127393920,4
599618030135081088,4
599618030142768256,4
599618030150455296,7
599618030158142464,9
599618030165829632,11
599618030173516672,9
599618030181203840,7
599618030188890880,7
599618030196578029,9
599618030204265216,9
599618030211952384,7
599618030219639424,9
599618030227326592,11
599618030235013760,9
599618030242700800,9
599618030250387968,11
599618030258075008,11
599618030265762176,9
599618030273449344,9
599618030281136384,4
599618030288823552,-2
599618030296510720,-11
599618030304197760,-7
599618030311884928,9
599618030319572096,23
599618030327259136,33
599618030334946304,42
599618030342633472,40
599618030350320512,21
599618030358007680,9
599618030365694720,14
599618030373381888,19
599618030381069056,14
599618030388756096,14
599618030396443264,19
599618030404130432,19
599618030411817472,16
599618030419504640,-4
599618030427191808,-97
599618030434878848,-224
599618030442566016,-121
599618030450253056,396
599618030457940224,1000
599618030465627392,991
599618030473314432,265
599618030481001600,-296
599618030488688768,-222
599618030496375808,-57
599618030504062976,-62
599618030511750144,-38
599618030519437184,-7
599618030527124352,-19
599618030534811520,-14
599618030542498560,4
599618030550185728,4
599618030557872768,4
599618030565559936,16
599618030573247104,19
599618030580934144,21
599618030588621312,28
599618030596308480,33
599618030603995520,38
599618030611682688,42
599618030619369856,52
599618030627056896,62
599618030634744064,74
599618030642431104,85
599618030650118272,102
599618030657805440,117
599618030665492480,131
599618030673179648,148
599618030680866816,162
599618030688553856,169
599618030696241024,169
599618030703928192,164
599618030711615232,150
599618030719302400,128
599618030726989440,97
599618030734676608,54
599618030742363776,14
599618030750050816,-16
599618030757737926,-40
599618030765425152,-57
599618030773112320,-69
599618030780799360,-74
599618030788486528,-74
599618030796173696,-74
599618030803860736,-71
599618030811547904,-66
599618030819234944,-64
599618030826922112,-62
599618030834609280,-57
599618030842296320,-52
599618030849983488,-50
599618030857670656,-47
599618030865357696,-40
599618030873044864,-38
599618030880732032,-35
599618030888419072,-31
599618030896106240,-26
599618030903793408,-26
599618030911480448,-21
599618030919167616,-19
599618030926854656,-19
599618030934541824,-14
599618030942228992,-9
599618030949916032,-9
599618030957603200,-9
599618030965290368,-9
599618030972977408,-4
599618030980664576,-4
599618030988351744,-7
599618030996038784,-4
599618031003725952,-4
599618031011412992,-7
599618031019100160,-4
599618031026787328,-4
599618031034474368,-4
599618031042161536,-4
599618031049848704,-2
599618031057535744,-2
599618031065222912,0
599618031072910080,0
599618031080597120,2
599618031088284288,4
599618031095971456,4
599618031103658496,2
599618031111345664,2
599618031119032704,4
599618031126719872,4
599618031134407040,4
599618031142094080,4
599618031149781248,7
599618031157468416,9
599618031165155456,9
599618031172842624,7
599618031180529792,7
599618031188216832,9
599618031195904000,11
599618031203591040,9
599618031211278208,9
599618031218965376,11
599618031226652416,11
599618031234339584,9
599618031242026752,9
599618031249713792,11
599618031257400960,7
599618031265088128,-2
599618031272775168,-11
599618031280462336,-2
599618031288149376,14
599618031295836544,31
599618031303523712,40
599618031311210752,45
599618031318897823,35
599618031326584960,19
599618031334272128,9
599618031341959168,16
599618031349646336,19
599618031357333504,14
599618031365020544,16
599618031372707712,19
599618031380394752,19
599618031388081920,14
599618031395769088,-14
599618031403456128,-128
599618031411143296,-231
599618031418830464,-35
599618031426517504,554
599618031434204672,1086
599618031441891840,888
599618031449578880,83
599618031457266048,-348
599618031464953216,-186
599618031472640256,-54
599618031480327424,-64
599618031488014464,-26
599618031495701632,-4
599618031503388800,-19
599618031511075840,-11
599618031518763008,4
599618031526450176,4
599618031534137216,7
599618031541824384,16
599618031549511552,19
599618031557198592,23
599618031564885760,31
599618031572572800,35
599618031580259968,42
599618031587947136,50
599618031595634176,57
599618031603321344,66
599618031611008512,78
599618031618695552,93
599618031626382720,107
599618031634069888,124
599618031641756928,138
599618031649444096,152
599618031657131264,162
599618031664818304,169
599618031672505472,169
599618031680192512,160
599618031687879680,145
599618031695566848,121
599618031703253888,85
599618031710941056,45
599618031718628224,4
599618031726315264,-26
599618031734002432,-47
599618031741689600,-59
599618031749376640,-69
599618031757063808,-76
599618031764750848,-76
599618031772438016,-74
599618031780125184,-71
599618031787812224,-69
599618031795499392,-66
599618031803186560,-64
599618031810873600,-59
599618031818560768,-54
599618031826247936,-52
599618031833934976,-47
599618031841622144,-42
599618031849309184,-40
599618031856996352,-38
599618031864683520,-33
599618031872370560,-28
599618031880057720,-26
599618031887744896,-26
599618031895432064,-23
599618031903119104,-21
599618031910806272,-19
599618031918493440,-14
599618031926180480,-11
599618031933867648,-11
599618031941554688,-11
599618031949241856,-16
599618031956929024,-16
599618031964616064,-14
599618031972303232,-14
599618031979990400,-11
599618031987677440,-9
599618031995364608,-14
599618032003051776,-14
599618032010738816,-11
599618032018425984,-11
599618032026113152,-9
599618032033800192,-7
599618032041487360,-7
599618032049174400,-7
599618032056861568,-4
599618032064548736,-7
599618032072235776,-7
599618032079922944,-2
599618032087610112,4
599618032095297152,0
599618032102984320,-2
599618032110671488,0
599618032118358528,-2
599618032126045696,-4
599618032133732736,0
599618032141419904,-2
599618032149107072,-2
599618032156794112,2
599618032164481280,4
599618032172168448,2
599618032179855488,0
599618032187542656,2
599618032195229824,4
599618032202916864,4
599618032210604032,4
599618032218291200,0
599618032225978240,-2
599618032233665408,-11
599618032241352448,-11
599618032249039616,2
599618032256726784,16
599618032264413824,26
599618032272100992,38
599618032279788160,38
599618032287475200,16
599618032295162368,-2
599618032302849536,0
599618032310536576,9
599618032318223744,9
599618032325910784,7
599618032333597952,7
599618032341285120,7
599618032348972160,11
599618032356659328,-2
599618032364346496,-81
599618032372033536,-212
599618032379720704,-164
599618032387407872,293
599618032395094912,936
599618032402782080,1048
599618032410469120,317
599618032418156288,-384
599618032425843456,-334
599618032433530496,-109
599618032441217617,-97
599618032448904832,-47
599618032456592000,9
599618032464279040,-19
599618032471966208,-19
599618032479653376,11
599618032487340416,4
599618032495027584,-2
599618032502714624,16
599618032510401792,28
599618032518088960,28
599618032525776000,31
599618032533463168,35
599618032541150336,45
599618032548837376,52
599618032556524544,64
599618032564211712,76
599618032571898752,85
599618032579585920,100
599618032587273088,119
599618032594960128,131
599618032602647296,145
599618032610334336,167
599618032618021504,181
599618032625708672,186
599618032633395712,186
599618032641082880,179
599618032648770048,164
599618032656457088,145
599618032664144256,114
599618032671831424,66
599618032679518464,19
599618032687205632,-16
599618032694892672,-47
599618032702579840,-69
599618032710267008,-78
599618032717954048,-83
599618032725641216,-88
599618032733328384,-88
599618032741015424,-85
599618032748702592,-83
599618032756389760,-76
599618032764076800,-69
599618032771763968,-69
599618032779451136,-66
599618032787138176,-57
599618032794825344,-57
599618032802512384,-54
599618032810199552,-52
599618032817886720,-50
599618032825573760,-42
599618032833260928,-35
599618032840948096,-33
599618032848635136,-31
599618032856322304,-26
599618032864009472,-23
599618032871696512,-23
599618032879383680,-23
599618032887070720,-21
599618032894757888,-19
599618032902445056,-21
599618032910132096,-21
599618032917819264,-21
599618032925506432,-21
599618032933193472,-19
599618032940880640,-16
599618032948567808,-19
599618032956254848,-21
599618032963942016,-19
599618032971629184,-14
599618032979316224,-11
599618032987003392,-11
599618032994690432,-9
599618033002377518,-9
599618033010064256,-11
599618033017751040,-9
599618033025437824,-7
599618033033124608,-11
599618033040811392,-11
599618033048498176,-7
599618033056184960,-11
599618033063871616,-16
599618033071558400,-19
599618033079245184,-19
599618033086931968,-4
599618033094618752,14
599618033102305536,21
599618033109992320,26
599618033117679104,19
599618033125365888,2
599618033133052672,-2
599618033140739456,0
599618033148426240,0
599618033156112896,0
599618033163799680,2
599618033171486464,4
599618033179173248,7
599618033186860032,7
599618033194546816,-9
599618033202233600,-97
599618033209920384,-229
599618033217607168,-145
599618033225293952,346
599618033232980736,936
599618033240667520,900
599618033248354176,102
599618033256040960,-463
599618033263727744,-308
599618033271414528,-112
599618033279101312,-97
599618033286788096,-19
599618033294474880,21
599618033302161664,-11
599618033309848448,-2
599618033317535232,26
599618033325222016,23
599618033332908800,19
599618033340595456,31
599618033348282240,38
599618033355969024,40
599618033363655808,47
599618033371342592,57
599618033379029376,62
599618033386716160,71
599618033394402944,85
599618033402089728,95
599618033409776512,107
599618033417463296,124
599618033425150080,140
599618033432836736,160
599618033440523520,181
599618033448210304,195
599618033455897088,210
599618033463583872,214
599618033471270656,212
599618033478957440,210
599618033486644224,198
599618033494331008,160
599618033502017792,107
599618033509704576,54
599618033517391360,7
599618033525078144,-31
599618033532764800,-64
599618033540451584,-85
599618033548138368,-95
599618033555825152,-95
599618033563511984,-90
599618033571198976,-93
599618033578886016,-93
599618033586573056,-83
599618033594260096,-83
599618033601947136,-81
599618033609634176,-71
599618033617321344,-66
599618033625008384,-69
599618033632695424,-66
599618033640382464,-62
599618033648069504,-50
599618033655756544,-42
599618033663443584,-47
599618033671130624,-47
599618033678817664,-35
599618033686504704,-26
599618033694191872,-28
599618033701878912,-35
599618033709565952,-28
599618033717252992,-21
599618033724940032,-23
599618033732627072,-21
599618033740314112,-19
599618033748001152,-23
599618033755688192,-21
599618033763375232,-14
599618033771062272,-19
599618033778749440,-23
599618033786436480,-16
599618033794123520,-16
599618033801810560,-23
599618033809497600,-23
599618033817184640,-23
599618033824871680,-33
599618033832558720,-31
599618033840245760,-9
599618033847932800,4
599618033855619968,14
599618033863307008,21
599618033870994048,14
599618033878681088,-2
599618033886368128,-9
599618033894055168,-7
599618033901742208,-4
599618033909429248,-4
599618033917116288,0
599618033924803328,2
599618033932490368,0
599618033940177536,0
599618033947864576,-14
599618033955551616,-90
599618033963238656,-219
599618033970925696,-181
599618033978612736,253
599618033986299776,857
599618033993986816,936
599618034001673856,231
599618034009360896,-396
599618034017048064,-322
599618034024735104,-117
599618034032422144,-95
599618034040109184,-26
599618034047796224,26
599618034055483264,-7
599618034063170304,-4
599618034070857344,26
599618034078544384,21
599618034086231424,16
599618034093918464,33
599618034101605632,35
599618034109292672,33
599618034116979712,50
599618034124666794,62
599618034132353920,62
599618034140041088,66
599618034147728128,81
599618034155415296,93
599618034163102464,107
599618034170789504,117
599618034178476672,131
599618034186163712,157
599618034193850880,179
599618034201538048,193
599618034209225088,212
599618034216912256,219
599618034224599424,212
599618034232286464,205
599618034239973632,188
599618034247660800,155
599618034255347840,102
599618034263035008,40
599618034270722176,-7
599618034278409216,-40
599618034286096384,-71
599618034293783424,-88
599618034301470592,-90
599618034309157760,-100
599618034316844800,-107
599618034324531968,-93
599618034332219136,-83
599618034339906176,-88
599618034347593344,-88
599618034355280512,-74
599618034362967552,-66
599618034370654720,-69
599618034378341760,-69
599618034386028928,-62
599618034393716096,-59
599618034401403136,-52
599618034409090304,-38
599618034416777472,-35
599618034424464512,-42
599618034432151680,-38
599618034439838848,-28
599618034447525888,-26
599618034455213056,-21
599618034462900224,-19
599618034470587264,-21
599618034478274432,-19
599618034485961472,-16
599618034493648640,-23
599618034501335808,-23
599618034509022848,-19
599618034516710016,-21
599618034524397184,-21
599618034532084224,-19
599618034539771392,-21
599618034547458560,-31
599618034555145600,-38
599618034562832768,-35
599618034570519808,-11
599618034578206976,7
599618034585894144,14
599618034593581184,19
599618034601268352,7
599618034608955520,-7
599618034616642560,-9
599618034624329728,-4
599618034632016896,-2
599618034639703936,2
599618034647391104,4
599618034655078144,2
599618034662765312,-2
599618034670452480,-2
599618034678139520,-31
599618034685826691,-136
599618034693513728,-241
599618034701200768,-64
599618034708887680,494
599618034716574720,972
599618034724261632,718
599618034731948672,-59
599618034739635584,-408
599618034747322624,-212
599618034755009536,-88
599618034762696576,-69
599618034770383616,-4
599618034778070528,7
599618034785757568,-11
599618034793444480,9
599618034801131520,28
599618034808818432,16
599618034816505472,14
599618034824192384,23
599618034831879424,26
599618034839566336,38
599618034847253376,50
599618034854940416,54
599618034862627328,62
599618034870314368,66
599618034878001280,74
599618034885688320,88
599618034893375232,105
599618034901062272,126
599618034908749184,145
599618034916436224,157
599618034924123264,174
599618034931810176,193
599618034939497216,203
599618034947184128,207
599618034954871168,205
599618034962558080,191
599618034970245120,167
599618034977932032,126
599618034985619072,66
599618034993305984,9
599618035000993024,-26
599618035008680064,-54
599618035016366976,-81
599618035024054016,-90
599618035031740928,-85
599618035039427968,-90
599618035047114880,-97
599618035054801920,-85
599618035062488832,-83
599618035070175872,-83
599618035077862912,-71
599618035085549824,-69
599618035093236864,-74
599618035100923776,-69
599618035108610816,-62
599618035116297728,-52
599618035123984768,-50
599618035131671680,-47
599618035139358720,-42
599618035147045760,-42
599618035154732672,-35
599618035162419712,-31
599618035170106624,-28
599618035177793664,-14
599618035185480576,-19
599618035193167616,-31
599618035200854528,-16
599618035208541568,-9
599618035216228480,-26
599618035223915520,-23
599618035231602560,-9
599618035239289472,-14
599618035246976418,-19
599618035254663552,-11
599618035262350720,-9
599618035270037888,-14
599618035277725184,-11
599618035285412352,-11
599618035293099520,-23
599618035300786688,-31
599618035308473856,-28
599618035316161024,-16
599618035323848320,2
599618035331535488,9
599618035339222656,16
599618035346909824,26
599618035354596992,19
599618035362284288,2
599618035369971456,-4
599618035377658624,-2
599618035385345792,0
599618035393032960,2
599618035400720128,7
599618035408407424,7
599618035416094592,7
599618035423781760,4
599618035431468928,-26
599618035439156096,-126
599618035446843392,-229
599618035454530560,-74
599618035462217728,458
599618035469904896,943
599618035477592064,728
599618035485279360,-26
599618035492966528,-384
599618035500653696,-198
599618035508340864,-71
599618035516028032,-57
599618035523715200,4
599618035531402496,11
599618035539089664,-16
599618035546776832,7
599618035554464000,23
599618035562151168,14
599618035569838464,23
599618035577525632,33
599618035585212800,28
599618035592899968,38
599618035600587136,50
599618035608274304,47
599618035615961600,47
599618035623648768,69
599618035631335936,85
599618035639023104,83
599618035646710272,95
599618035654397568,114
599618035662084736,128
599618035669771904,150
599618035677459072,167
599618035685146240,179
599618035692833408,191
599618035700520704,198
599618035708207872,191
599618035715895040,176
599618035723582208,157
599618035731269376,114
599618035738956672,57
599618035746643840,16
599618035754331008,-16
599618035762018176,-54
599618035769705344,-76
599618035777392640,-78
599618035785079808,-88
599618035792766976,-93
599618035800454144,-88
599618035808141402,-83
599618035815828224,-76
599618035823515008,-64
599618035831201792,-69
599618035838888576,-71
599618035846575360,-59
599618035854262144,-59
599618035861948928,-64
599618035869635584,-59
599618035877322368,-50
599618035885009152,-42
599618035892695936,-35
599618035900382720,-35
599618035908069504,-42
599618035915756288,-33
599618035923443072,-21
599618035931129856,-28
599618035938816640,-23
599618035946503424,-11
599618035954190208,-21
599618035961876864,-26
599618035969563648,-16
599618035977250432,-14
599618035984937216,-11
599618035992624000,-9
599618036000310784,-14
599618036007997568,-16
599618036015684352,-9
599618036023371136,0
599618036031057920,-7
599618036038744704,-14
599618036046431488,-4
599618036054118144,-2
599618036061804928,-4
599618036069491712,-4
599618036077178496,-7
599618036084865280,-4
599618036092552064,-2
599618036100238848,2
599618036107925632,2
599618036115612416,0
599618036123299200,-4
599618036130985984,-9
599618036138672768,-16
599618036146359424,-9
599618036154046208,7
599618036161732992,28
599618036169419776,38
599618036177106560,28
599618036184793344,23
599618036192480128,16
599618036200166912,2
599618036207853696,7
599618036215540480,19
599618036223227264,11
599618036230914048,2
599618036238600704,11
599618036246287488,19
599618036253974272,11
599618036261661056,0
599618036269347840,-54
599618036277034624,-179
599618036284721408,-203
599618036292408192,136
599618036300094976,702
599618036307781760,898
599618036315468544,389
599618036323155328,-234
599618036330841984,-296
599618036338528768,-100
599618036346215552,-52
599618036353902336,-26
599618036361589120,16
599618036369275864,4
599618036376963072,-2
599618036384650240,19
599618036392337280,28
599618036400024448,19
599618036407711616,28
599618036415398656,42
599618036423085824,42
599618036430772864,40
599618036438460032,47
599618036446147200,54
599618036453834240,62
599618036461521408,71
599618036469208576,83
599618036476895616,88
599618036484582784,100
599618036492269952,121
599618036499956992,133
599618036507644160,150
599618036515331328,169
599618036523018368,171
599618036530705536,176
599618036538392576,193
599618036546079744,188
599618036553766912,164
599618036561453952,138
599618036569141120,95
599618036576828288,45
599618036584515328,9
599618036592202496,-23
599618036599889664,-62
599618036607576704,-71
599618036615263872,-74
599618036622950912,-83
599618036630638080,-78
599618036638325248,-74
599618036646012288,-76
599618036653699456,-69
599618036661386624,-64
599618036669073664,-64
599618036676760832,-57
599618036684448000,-50
599618036692135040,-57
599618036699822208,-57
599618036707509376,-45
599618036715196416,-42
599618036722883584,-42
599618036730570624,-38
599618036738257792,-38
599618036745944960,-35
599618036753632000,-26
599618036761319168,-23
599618036769006336,-21
599618036776693376,-16
599618036784380544,-21
599618036792067712,-21
599618036799754752,-16
599618036807441920,-14
599618036815128960,-7
599618036822816128,-4
599618036830503296,-16
599618036838190336,-14
599618036845877504,-7
599618036853564672,-9
599618036861251712,-4
599618036868938880,-2
599618036876626048,-9
599618036884313088,-4
599618036892000256,4
599618036899687424,0
599618036907374464,-2
599618036915061632,2
599618036922748672,-2
599618036930435765,0
599618036938122880,7
599618036945810048,4
599618036953497088,2
599618036961184256,7
599618036968871424,7
599618036976558464,4
599618036984245632,9
599618036991932672,9
599618036999619840,9
599618037007307008,14
599618037014994048,0
599618037022681216,0
599618037030368384,7
599618037038055424,-4
599618037045742592,-11
599618037053429760,4
599618037061116800,31
599618037068803968,42
599618037076491136,40
599618037084178176,31
599618037091865344,19
599618037099552384,11
599618037107239552,16
599618037114926720,21
599618037122613760,19
599618037130300928,16
599618037137988096,11
599618037145675136,14
599618037153362304,19
599618037161049472,14
599618037168736512,-4
599618037176423680,-88
599618037184110720,-217
599618037191797888,-126
599618037199485056,365
599618037207172096,883
599618037214859264,797
599618037222546432,112
599618037230233472,-329
599618037237920640,-207
599618037245607808,-59
599618037253294848,-47
599618037260982016,-7
599618037268669184,14
599618037276356224,2
599618037284043392,14
599618037291730432,28
599618037299417600,26
599618037307104768,28
599618037314791808,33
599618037322478976,35
599618037330166144,42
599618037337853184,54
599618037345540352,54
599618037353227520,52
599618037360914560,64
599618037368601728,78
599618037376288768,85
599618037383975936,90
599618037391663104,109
599618037399350144,131
599618037407037312,138
599618037414724480,155
599618037422411520,176
599618037430098688,176
599618037437785856,183
599618037445472896,191
599618037453160064,183
599618037460847104,164
599618037468534272,136
599618037476221440,88
599618037483908480,40
599618037491595662,0
599618037499282304,-31
599618037506968960,-52
599618037514655744,-74
599618037522342400,-78
599618037530029056,-76
599618037537715840,-81
599618037545402496,-83
599618037553089280,-71
599618037560775936,-64
599618037568462592,-64
599618037576149376,-62
599618037583836032,-59
599618037591522688,-54
599618037599209472,-52
599618037606896128,-50
599618037614582912,-42
599618037622269568,-40
599618037629956224,-42
599618037637643008,-35
599618037645329664,-28
599618037653016320,-28
599618037660703104,-28
599618037668389760,-21
599618037676076544,-16
599618037683763200,-19
599618037691449856,-14
599618037699136640,-4
599618037706823296,-9
599618037714509952,-11
599618037722196736,-7
599618037729883392,-4
599618037737570176,-9
599618037745256832,-11
599618037752943488,-2
599618037760630272,0
599618037768316928,-4
599618037776003584,-4
599618037783690368,0
599618037791377024,-2
599618037799063808,-4
599618037806750464,2
599618037814437120,4
599618037822123904,0
599618037829810560,0
599618037837497216,7
599618037845184000,9
599618037852870656,2
599618037860557440,0
599618037868244096,4
599618037875930752,11
599618037883617536,11
599618037891304192,9
599618037898990848,9
599618037906677632,7
599618037914364288,9
599618037922051072,11
599618037929737728,4
599618037937424384,4
599618037945111168,11
599618037952797824,16
599618037960484480,11
599618037968171264,14
599618037975857920,16
599618037983544704,11
599618037991231360,9
599618037998918016,14
599618038006604800,14
599618038014291456,11
599618038021978112,7
599618038029664896,2
599618038037351552,-7
599618038045038336,0
599618038052725041,23
599618038060412160,33
599618038068099328,40
599618038075786368,47
599618038083473536,38
599618038091160704,16
599618038098847744,16
599618038106534912,19
599618038114221952,16
599618038121909120,16
599618038129596288,16
599618038137283328,19
599618038144970496,21
599618038152657664,19
599618038160344704,0
599618038168031872,-83
599618038175719040,-212
599618038183406080,-143
599618038191093248,334
599618038198780416,905
599618038206467456,895
599618038214154624,212
599618038221841664,-310
599618038229528832,-231
599618038237216000,-71
599618038244903040,-59
599618038252590208,-16
599618038260277376,14
599618038267964416,-2
599618038275651584,4
599618038283338752,21
599618038291025792,16
599618038298712960,14
599618038306400000,26
599618038314087168,35
599618038321774336,40
599618038329461376,40
599618038337148544,45
599618038344835712,50
599618038352522752,54
599618038360209920,66
599618038367897088,81
599618038375584128,93
599618038383271296,102
599618038390958464,114
599618038398645504,133
599618038406332672,148
599618038414019712,157
599618038421706880,174
599618038429394048,183
599618038437081088,179
599618038444768256,176
599618038452455424,169
599618038460142464,143
599618038467829632,105
599618038475516800,59
599618038483203840,19
599618038490891008,-9
599618038498578048,-38
599618038506265216,-57
599618038513952384,-64
599618038521639424,-69
599618038529326592,-74
599618038537013760,-66
599618038544700800,-62
599618038552387968,-64
599618038560075136,-59
599618038567762176,-57
599618038575449344,-54
599618038583136384,-47
599618038590823552,-47
599618038598510720,-47
599618038606197760,-40
599618038613884938,-38
599618038621572096,-38
599618038629259264,-31
599618038636946304,-21
599618038644633472,-19
599618038652320640,-14
599618038660007680,-9
599618038667694848,-11
599618038675381888,-11
599618038683069056,-7
599618038690756224,-2
599618038698443264,-7
599618038706130432,-7
599618038713817600,-2
599618038721504640,-2
599618038729191808,0
599618038736878976,-2
599618038744566016,-4
599618038752253184,0
599618038759940352,2
599618038767627392,0
599618038775314560,-2
599618038783001600,2
599618038790688768,7
599618038798375936,7
599618038806062976,4
599618038813750144,7
599618038821437312,4
599618038829124352,2
599618038836811520,7
599618038844498688,11
599618038852185728,9
599618038859872896,7
599618038867559936,9
599618038875247104,9
599618038882934272,11
599618038890621312,11
599618038898308480,11
599618038905995648,11
599618038913682688,14
599618038921369856,14
599618038929057024,11
599618038936744064,14
599618038944431232,16
599618038952118400,16
599618038959805440,16
599618038967492608,16
599618038975179648,16
599618038982866816,16
599618038990553984,16
599618038998241024,14
599618039005928192,16
599618039013615360,16
599618039021302400,11
599618039028989568,4
599618039036676736,0
599618039044363776,4
599618039052050944,23
599618039059737984,35
599618039067425152,42
599618039075112320,50
599618039082799360,50
599618039090486528,31
599618039098173696,16
599618039105860736,21
599618039113547904,26
599618039121235072,21
599618039128922112,21
599618039136609280,23
599618039144296320,28
599618039151983488,28
599618039159670656,9
599618039167357696,-78
599618039175044835,-212
599618039182732032,-150
599618039190419200,324
599618039198106240,931
599618039205793408,993
599618039213480576,320
599618039221167616,-284
599618039228854784,-248
599618039236541824,-64
599618039244228992,-59
599618039251916160,-33
599618039259603200,4
599618039267290368,-4
599618039274977536,-4
599618039282664576,11
599618039290351744,11
599618039298038912,14
599618039305725952,21
599618039313413120,28
599618039321100288,33
599618039328787328,33
599618039336474496,38
599618039344161536,45
599618039351848704,52
599618039359535872,64
599618039367222912,76
599618039374910080,85
599618039382597248,95
599618039390284288,109
599618039397971456,126
599618039405658624,143
599618039413345664,157
599618039421032832,169
599618039428719872,179
599618039436407040,183
599618039444094208,181
599618039451781248,164
599618039459468416,143
599618039467155584,112
599618039474842624,69
599618039482529792,26
599618039490216960,-7
599618039497904000,-33
599618039505591168,-52
599618039513278336,-66
599618039520965376,-71
599618039528652544,-71
599618039536339584,-69
599618039544026752,-69
599618039551713920,-64
599618039559400960,-62
599618039567088128,-62
599618039574775296,-62
599618039582462336,-54
599618039590149504,-47
599618039597836672,-47
599618039605523712,-45
599618039613210880,-42
599618039620897920,-38
599618039628585088,-31
599618039636272256,-28
599618039643959296,-21
599618039651646464,-14
599618039659333632,-14
599618039667020672,-14
599618039674707840,-9
599618039682395008,-4
599618039690082048,-4
599618039697769216,-7
599618039705456384,-4
599618039713143424,-2
599618039720830592,-2
599618039728517632,-4
599618039736204736,-7
599618039743891584,-4
599618039751578368,-2
599618039759265152,-2
599618039766951936,0
599618039774638720,0
599618039782325504,-2
599618039790012288,-2
599618039797698944,0
599618039805385728,4
599618039813072512,2
599618039820759296,0
599618039828446080,4
599618039836132864,4
599618039843819648,4
599618039851506432,4
599618039859193216,7
599618039866880000,7
599618039874566784,4
599618039882253568,7
599618039889940224,7
599618039897627008,7
599618039905313792,7
599618039913000576,9
599618039920687360,9
599618039928374144,9
599618039936060928,11
599618039943747712,11
599618039951434496,11
599618039959121280,9
599618039966808064,9
599618039974494848,11
599618039982181504,14
599618039989868288,14
599618039997555072,14
599618040005241856,11
599618040012928640,7
599618040020615424,2
599618040028302208,-4
599618040035988992,-2
599618040043675776,11
599618040051362560,28
599618040059049344,42
599618040066736128,47
599618040074422784,40
599618040082109568,23
599618040089796352,14
599618040097483136,19
599618040105169920,23
599618040112856704,16
599618040120543488,19
599618040128230272,23
599618040135917056,19
599618040143603840,14
599618040151290624,0
599618040158977408,-90
599618040166664064,-222
599618040174350848,-128
599618040182037632,384
599618040189724416,984
599618040197411200,979
599618040205097984,267
599618040212784768,-296
599618040220471552,-229
599618040228158336,-59
599618040235845120,-57
599618040243531904,-35
599618040251218688,-2
599618040258905472,-14
599618040266592128,-11
599618040274278912,4
599618040281965696,7
599618040289652480,4
599618040297339202,16
599618040305026432,21
599618040312713600,23
599618040320400768,28
599618040328088064,33
599618040335775232,35
599618040343462400,42
599618040351149568,52
599618040358836736,64
599618040366523904,76
599618040374211200,90
599618040381898368,102
599618040389585536,114
599618040397272704,133
599618040404959872,152
599618040412647168,162
599618040420334336,167
599618040428021504,171
599618040435708672,167
599618040443395840,157
599618040451083008,138
599618040458770304,105
599618040466457472,64
599618040474144640,21
599618040481831808,-16
599618040489518976,-42
599618040497206272,-59
599618040504893440,-71
599618040512580608,-76
599618040520267776,-71
599618040527954944,-69
599618040535642240,-71
599618040543329408,-71
599618040551016576,-64
599618040558703744,-62
599618040566390912,-62
599618040574078080,-59
599618040581765376,-52
599618040589452544,-50
599618040597139712,-50
599618040604826880,-47
599618040612514048,-38
599618040620201344,-33
599618040627888512,-33
599618040635575680,-26
599618040643262848,-19
599618040650950016,-16
599618040658637184,-16
599618040666324480,-14
599618040674011648,-11
599618040681698816,-11
599618040689385984,-9
599618040697073152,-7
599618040704760448,-4
599618040712447616,-7
599618040720134784,-7
599618040727821952,-7
599618040735509120,-7
599618040743196288,-4
599618040750883584,-4
599618040758570752,-7
599618040766257920,-4
599618040773945088,0
599618040781632256,0
599618040789319552,0
599618040797006720,0
599618040804693888,0
599618040812381056,2
599618040820068224,2
599618040827755520,2
599618040835442688,2
599618040843129856,2
599618040850817024,2
599618040858504186,2
599618040866191360,2
599618040873878528,2
599618040881565696,4
599618040889252992,4
599618040896940160,4
599618040904627328,2
599618040912314496,4
599618040920001664,7
599618040927688832,7
599618040935376128,7
599618040943063296,9
599618040950750464,9
599618040958437632,9
599618040966124800,9
599618040973812096,7
599618040981499264,7
599618040989186432,4
599618040996873600,2
599618041004560768,-7
599618041012247936,-14
599618041019935232,-2
599618041027622400,16
599618041035309568,31
599618041042996736,38
599618041050683904,42
599618041058371200,28
599618041066058368,14
599618041073745536,11
599618041081432704,14
599618041089119872,11
599618041096807168,14
599618041104494336,14
599618041112181504,11
599618041119868672,14
599618041127555840,14
599618041135243008,-35
599618041142930304,-164
599618041150617472,-222
599618041158304640,78
599618041165991808,706
599618041173678976,1089
599618041181366272,668
599618041189053440,-117
599618041196740608,-339
599618041204427776,-126
599618041212114944,-52
599618041219802112,-57
599618041227489408,-11
599618041235176576,-4
599618041242863744,-16
599618041250550912,0
599618041258238080,11
599618041265925376,9
599618041273612544,14
599618041281299712,19
599618041288986880,19
599618041296674048,26
599618041304361216,35
599618041312048512,42
599618041319735680,45
599618041327422848,52
599618041335110016,62
599618041342797184,71
599618041350484480,83
599618041358171648,97
599618041365858816,112
599618041373545984,126
599618041381233152,143
599618041388920448,155
599618041396607616,164
599618041404294784,171
599618041411981952,169
599618041419669170,162
599618041427356032,145
599618041435042944,121
599618041442729856,88
599618041450416768,42
599618041458103680,0
599618041465790592,-28
599618041473477504,-52
599618041481164416,-66
599618041488851328,-76
599618041496538240,-78
599618041504225152,-76
599618041511912064,-74
599618041519598976,-74
599618041527285888,-71
599618041534972800,-66
599618041542659712,-59
599618041550346624,-57
599618041558033536,-54
599618041565720448,-54
599618041573407360,-50
599618041581094272,-45
599618041588781184,-40
599618041596468096,-35
599618041604155008,-31
599618041611841920,-26
599618041619528832,-21
599618041627215744,-19
599618041634902656,-14
599618041642589568,-11
599618041650276480,-11
599618041657963392,-11
599618041665650304,-7
599618041673337216,-7
599618041681024128,-7
599618041688711040,-4
599618041696397952,-7
599618041704084864,-7
599618041711771776,-7
599618041719458688,-7
599618041727145600,-4
599618041734832512,-7
599618041742519424,-7
599618041750206336,-7
599618041757893248,-2
599618041765580160,-4
599618041773267072,-4
599618041780953984,-2
599618041788640896,-2
599618041796327808,0
599618041804014720,0
599618041811701632,0
599618041819388544,0
599618041827075456,0
599618041834762368,2
599618041842449280,2
599618041850136192,0
599618041857823104,0
599618041865510016,2
599618041873196928,2
599618041880883840,2
599618041888570752,4
599618041896257664,7
599618041903944576,4
599618041911631488,2
599618041919318400,7
599618041927005312,7
599618041934692224,2
599618041942379136,2
599618041950066048,9
599618041957752960,7
599618041965439872,4
599618041973126784,2
599618041980813806,0
599618041988500992,-11
599618041996188160,-11
599618042003875200,4
599618042011562368,21
599618042019249536,33
599618042026936576,40
599618042034623744,33
599618042042310784,14
599618042049997952,4
599618042057685120,11
599618042065372160,9
599618042073059328,4
599618042080746496,7
599618042088433536,11
599618042096120704,11
599618042103807872,11
599618042111494912,-9
599618042119182080,-109
599618042126869248,-229
599618042134556288,-88
599618042142243456,456
599618042149930496,1034
599618042157617664,938
599618042165304832,131
599618042172991872,-391
599618042180679040,-241
599618042188366208,-76
599618042196053248,-83
599618042203740416,-33
599618042211427584,0
599618042219114624,-21
599618042226801792,-14
599618042234488832,7
599618042242176000,4
599618042249863168,7
599618042257550208,19
599618042265237376,21
599618042272924544,26
599618042280611584,35
599618042288298752,40
599618042295985920,40
599618042303672960,52
599618042311360128,64
599618042319047296,71
599618042326734336,83
599618042334421504,102
599618042342108544,117
599618042349795712,128
599618042357482880,143
599618042365169920,164
599618042372857088,179
599618042380544256,179
599618042388231296,179
599618042395918464,179
599618042403605632,167
599618042411292672,140
599618042418979840,105
599618042426666880,64
599618042434354048,21
599618042442041216,-16
599618042449728256,-45
599618042457415424,-66
599618042465102592,-78
599618042472789632,-81
599618042480476800,-83
599618042488163968,-88
599618042495851008,-83
599618042503538176,-76
599618042511225216,-76
599618042518912384,-74
599618042526599552,-69
599618042534286592,-62
599618042541973703,-57
599618042549660928,-57
599618042557348096,-52
599618042565035136,-47
599618042572722304,-47
599618042580409472,-45
599618042588096512,-33
599618042595783680,-28
599618042603470720,-28
599618042611157888,-26
599618042618845056,-21
599618042626532096,-21
599618042634219264,-21
599618042641906432,-19
599618042649593472,-21
599618042657280640,-21
599618042664967808,-21
599618042672654848,-19
599618042680342016,-19
599618042688029184,-21
599618042695716224,-19
599618042703403392,-14
599618042711090432,-16
599618042718777600,-19
599618042726464768,-14
599618042734151808,-14
599618042741838976,-11
599618042749526144,-9
599618042757213184,-9
599618042764900352,-9
599618042772587520,-9
599618042780274560,-4
599618042787961728,-7
599618042795648768,-9
599618042803335936,-7
599618042811023104,-7
599618042818710144,-7
599618042826397312,0
599618042834084480,0
599618042841771520,-2
599618042849458688,0
599618042857145856,0
599618042864832896,-7
599618042872520064,-4
599618042880207232,-7
599618042887894272,-16
599618042895581440,-16
599618042903268480,4
599618042910955648,19
599618042918642816,21
599618042926329856,31
599618042934017024,28
599618042941704192,11
599618042949391232,2
599618042957078400,4
599618042964765568,7
599618042972452608,0
599618042980139776,2
599618042987826816,7
599618042995513984,4
599618043003201152,9
599618043010888192,7
599618043018575360,-74
599618043026262528,-219
599618043033949568,-181
599618043041636736,267
599618043049323904,876
599618043057010944,964
599618043064698112,255
599618043072385152,-403
599618043080072320,-339
599618043087759488,-117
599618043095446528,-95
599618043103133600,-28
599618043110820736,26
599618043118507904,-7
599618043126194944,-4
599618043133882112,26
599618043141569280,21
599618043149256320,14
599618043156943488,28
599618043164630528,38
599618043172317696,40
599618043180004864,50
599618043187691904,54
599618043195379072,52
599618043203066240,69
599618043210753280,85
599618043218440448,88
599618043226127616,95
599618043233814656,114
599618043241501824,128
599618043249188992,145
599618043256876032,164
599618043264563200,183
599618043272250240,195
599618043279937408,200
599618043287624576,198
599618043295311616,193
599618043302998784,188
599618043310685952,164
599618043318372992,121
599618043326060160,78
599618043333747328,31
599618043341434368,-19
599618043349121536,-50
599618043356808576,-66
599618043364495744,-81
599618043372182912,-90
599618043379869952,-93
599618043387557120,-88
599618043395244288,-81
599618043402931328,-76
599618043410618496,-74
599618043418305664,-76
599618043425992704,-76
599618043433679872,-66
599618043441367040,-54
599618043449054080,-54
599618043456741248,-59
599618043464428288,-54
599618043472115456,-40
599618043479802624,-38
599618043487489664,-35
599618043495176832,-31
599618043502864000,-31
599618043510551040,-31
599618043518238208,-28
599618043525925376,-26
599618043533612416,-19
599618043541299584,-21
599618043548986624,-23
599618043556673792,-23
599618043564360960,-23
599618043572048000,-23
599618043579735168,-21
599618043587422336,-16
599618043595109376,-16
599618043602796544,-19
599618043610483712,-16
599618043618170752,-14
599618043625857920,-21
599618043633545088,-19
599618043641232128,-7
599618043648919296,-4
599618043656606336,-9
599618043664293501,-11
599618043671980672,-11
599618043679667840,-14
599618043687354880,-16
599618043695042048,-16
599618043702729216,-21
599618043710416256,-21
599618043718103424,-4
599618043725790464,9
599618043733477632,21
599618043741164800,31
599618043748851840,19
599618043756539008,0
599618043764226176,-2
599618043771913216,-4
599618043779600384,-4
599618043787287552,2
599618043794974592,2
599618043802661760,-4
599618043810348928,2
599618043818035968,11
599618043825723136,-4
599618043833410176,-83
599618043841097344,-212
599618043848784512,-188
599618043856471552,219
599618043864158720,816
599618043871845888,931
