599618301768324992,-31
599618301776017280,59
599618301783709568,329
599618301791401856,573
599618301799094272,675
599618301806786560,771
599618301814478848,888
599618301822171136,979
599618301829863424,1086
599618301837555712,1194
599618301845248128,1270
599618301852940416,1356
599618301860632704,1452
599618301868324992,1531
599618301876017280,1583
599618301883709568,1576
599618301891401856,1523
599618301899094272,1607
599618301906786560,2042
599618301914478848,2689
599618301922171136,2942
599618301929863424,2429
599618301937555712,1808
599618301945248128,1769
599618301952940416,1968
599618301960632704,2056
599618301968324992,2147
599618301976017280,2199
599618301983709568,2197
599618301991401856,2230
599618301999094272,2278
599618302006786560,2297
599618302014478848,2319
599618302022171136,2343
599618302029863424,2362
599618302037555712,2388
599618302045248128,2407
599618302052940416,2419
599618302060632704,2438
599618302068324992,2452
599618302076017280,2472
599618302083709568,2498
599618302091401856,2503
599618302099094272,2507
599618302106786560,2527
599618302114478848,2531
599618302122171136,2534
599618302129863424,2536
599618302137555712,2524
599618302145248128,2524
599618302152940416,2524
599618302160632704,2488
599618302168324992,2457
599618302176017280,2436
599618302183709568,2398
599618302191401856,2371
599618302199094272,2352
599618302206786560,2326
599618302214478848,2300
599618302222171136,2276
599618302229863424,2261
599618302237555712,2259
599618302245248128,2247
599618302252940416,2238
599618302260632704,2242
599618302268324992,2228
599618302276017280,2197
599618302283709568,2197
599618302291401856,2209
599618302299094272,2192
599618302306786560,2166
599618302314478848,2161
599618302322171100,2163
599618302329858560,2152
599618302337545984,2118
599618302345233536,2104
599618302352920960,2106
599618302360608384,2078
599618302368295936,2049
599618302375983360,2058
599618302383670912,2044
599618302391358336,2006
599618302399045760,1994
599618302406733312,1994
599618302414420736,1960
599618302422108160,1913
599618302429795712,1896
599618302437483136,1903
599618302445170560,1913
599618302452858112,1913
599618302460545536,1908
599618302468233088,1889
599618302475920512,1853
599618302483607936,1820
599618302491295488,1798
599618302498982912,1781
599618302506670336,1769
599618302514357888,1741
599618302522045312,1724
599618302529732736,1731
599618302537420288,1712
599618302545107712,1667
599618302552795136,1554
599618302560482688,1428
599618302568170112,1562
599618302575857664,2070
599618302583545088,2586
599618302591232512,2460
599618302598920064,1691
599618302606607488,1206
599618302614294912,1318
599618302621982464,1430
599618302629669888,1421
599618302637357312,1478
599618302645044864,1490
599618302652732288,1454
599618302660419840,1461
599618302668107264,1454
599618302675794688,1421
599618302683482240,1425
599618302691169664,1428
599618302698857088,1402
599618302706544640,1385
599618302714232064,1394
599618302721919488,1394
599618302729607040,1368
599618302737294464,1361
599618302744982016,1378
599618302752669440,1368
599618302760356864,1354
599618302768044416,1354
599618302775731840,1344
599618302783419264,1344
599618302791106816,1339
599618302798794240,1308
599618302806481664,1280
599618302814169216,1277
599618302821856640,1270
599618302829544064,1230
599618302837231616,1177
599618302844919040,1156
599618302852606592,1134
599618302860294016,1084
599618302867981440,1048
599618302875668992,1029
599618302883356428,1007
599618302891043584,1000
599618302898730752,991
599618302906417792,962
599618302914104960,948
599618302921792128,950
599618302929479168,950
599618302937166336,943
599618302944853376,931
599618302952540544,926
599618302960227712,919
599618302967914752,898
599618302975601920,890
599618302983289088,902
599618302990976128,902
599618302998663296,883
599618303006350464,859
599618303014037504,850
599618303021724672,845
599618303029411840,838
599618303037098880,828
599618303044786048,809
599618303052473088,792
599618303060160256,797
599618303067847424,790
599618303075534464,769
599618303083221632,766
599618303090908800,749
599618303098595840,716
599618303106283008,718
599618303113970176,738
599618303121657216,738
599618303129344384,740
599618303137031424,742
599618303144718592,718
599618303152405760,692
599618303160092800,680
599618303167779968,673
599618303175467136,666
599618303183154176,661
599618303190841344,654
599618303198528512,642
599618303206215552,637
599618303213902720,628
599618303221589888,556
599618303229276928,425
599618303236964096,413
599618303244651136,749
599618303252338304,1332
599618303260025472,1605
599618303267712512,1120
599618303275399680,403
599618303283086848,246
599618303290773888,410
599618303298461056,465
599618303306148224,494
599618303313835264,525
599618303321522432,508
599618303329209472,508
599618303336896640,523
599618303344583808,518
599618303352270848,515
599618303359958016,506
599618303367645184,496
599618303375332224,511
599618303383019392,513
599618303390706560,501
599618303398393600,506
599618303406080768,513
599618303413767808,511
599618303421454976,515
599618303429142144,520
599618303436829184,520
599618303444516325,523
599618303452203776,525
599618303459891200,523
599618303467578624,518
599618303475265920,508
599618303482953344,496
599618303490640768,482
599618303498328192,463
599618303506015616,441
599618303513703040,415
599618303521390336,382
599618303529077760,348
599618303536765184,327
599618303544452608,312
599618303552140032,298
599618303559827328,286
599618303567514752,279
599618303575202176,272
599618303582889600,269
599618303590577024,272
599618303598264448,272
599618303605951744,272
599618303613639168,272
599618303621326592,272
599618303629014016,272
599618303636701440,274
599618303644388736,274
599618303652076160,274
599618303659763584,274
599618303667451008,272
599618303675138432,272
599618303682825856,269
599618303690513152,265
599618303698200576,260
599618303705888000,257
599618303713575424,257
599618303721262848,255
599618303728950144,248
599618303736637568,236
599618303744324992,236
599618303752012416,243
599618303759699840,236
599618303767387264,224
599618303775074560,222
599618303782761984,224
599618303790449408,214
599618303798136832,207
599618303805824256,200
599618303813511552,191
599618303821198976,186
599618303828886400,195
599618303836573824,217
599618303844261248,229
599618303851948672,236
599618303859635968,234
599618303867323392,212
599618303875010816,195
599618303882698240,193
599618303890385664,193
599618303898072960,191
599618303905760384,188
599618303913447808,188
599618303921135232,183
599618303928822656,179
599618303936509952,155
599618303944197376,52
599618303951884800,-52
599618303959572224,93
599618303967259648,601
599618303974947072,1144
599618303982634368,1072
599618303990321792,343
599618303998009216,-155
599618304005696570,-69
599618304013383808,66
599618304021071104,81
599618304028758272,119
599618304036445568,133
599618304044132864,119
599618304051820160,131
599618304059507328,140
599618304067194624,138
599618304074881920,140
599618304082569216,150
599618304090256384,155
599618304097943680,155
599618304105630976,152
599618304113318144,160
599618304121005440,171
599618304128692736,176
599618304136380032,179
599618304144067200,186
599618304151754496,195
599618304159441792,203
599618304167129088,207
599618304174816256,212
599618304182503552,214
599618304190190848,210
599618304197878016,203
599618304205565312,195
599618304213252608,186
599618304220939904,169
599618304228627072,150
599618304236314368,126
599618304244001664,102
599618304251688960,81
599618304259376128,64
599618304267063424,47
599618304274750720,38
599618304282437888,35
599618304290125184,33
599618304297812480,28
599618304305499776,28
599618304313186944,33
599618304320874240,38
599618304328561536,38
599618304336248832,42
599618304343936000,47
599618304351623296,47
599618304359310592,50
599618304366997760,54
599618304374685056,57
599618304382372352,57
599618304390059648,59
599618304397746816,59
599618304405434112,59
599618304413121408,59
599618304420808704,57
599618304428495872,52
599618304436183168,52
599618304443870464,57
599618304451557632,54
599618304459244928,50
599618304466932224,52
599618304474619520,54
599618304482306688,50
599618304489993984,50
599618304497681280,50
599618304505368576,45
599618304513055744,33
599618304520743040,21
599618304528430336,21
599618304536117632,38
599618304543804800,62
599618304551492096,78
599618304559179392,88
599618304566866637,81
599618304574553856,59
599618304582241024,52
599618304589928064,54
599618304597615232,54
599618304605302400,57
599618304612989440,59
599618304620676608,52
599618304628363648,47
599618304636050816,52
599618304643737984,21
599618304651425024,-95
599618304659112192,-183
599618304666799360,26
599618304674486400,597
599618304682173568,1105
599618304689860736,871
599618304697547776,52
599618304705234944,-336
599618304712922112,-164
599618304720609152,-54
599618304728296320,-28
599618304735983360,40
599618304743670528,42
599618304751357696,19
599618304759044736,42
599618304766731904,57
599618304774419072,50
599618304782106112,54
599618304789793280,64
599618304797480448,69
599618304805167488,71
599618304812854656,78
599618304820541696,83
599618304828228864,93
599618304835916032,102
599618304843603072,109
599618304851290240,121
599618304858977408,133
599618304866664448,140
599618304874351616,143
599618304882038784,143
599618304889725824,145
599618304897412992,148
599618304905100160,143
599618304912787200,131
599618304920474368,117
599618304928161408,105
599618304935848576,85
599618304943535744,59
599618304951222784,31
599618304958909952,11
599618304966597120,-2
599618304974284160,-14
599618304981971328,-21
599618304989658496,-23
599618304997345536,-26
599618305005032704,-28
599618305012719744,-26
599618305020406912,-21
599618305028094080,-16
599618305035781120,-9
599618305043468288,-7
599618305051155456,-2
599618305058842496,4
599618305066529664,11
599618305074216832,11
599618305081903872,16
599618305089591040,21
599618305097278080,21
599618305104965248,21
599618305112652416,23
599618305120339456,28
599618305128026534,26
599618305135714048,21
599618305143401600,19
599618305151089152,16
599618305158776704,16
599618305166464256,19
599618305174151808,21
599618305181839232,21
599618305189526784,19
599618305197214336,19
599618305204901888,19
599618305212589440,14
599618305220276992,9
599618305227964544,4
599618305235652096,-2
599618305243339648,7
599618305251027200,28
599618305258714624,42
599618305266402176,52
599618305274089728,59
599618305281777280,45
599618305289464832,28
599618305297152384,28
599618305304839936,31
599618305312527488,28
599618305320215040,31
599618305327902592,33
599618305335590144,35
599618305343277568,38
599618305350965120,23
599618305358652672,-54
599618305366340224,-188
599618305374027776,-148
599618305381715328,291
599618305389402880,929
599618305397090432,1096
599618305404777984,425
599618305412465536,-281
599618305420153088,-281
599618305427840512,-81
599618305435528064,-64
599618305443215616,-11
599618305450903168,38
599618305458590720,11
599618305466278272,11
599618305473965824,35
599618305481653376,33
599618305489340928,31
599618305497028480,45
599618305504715904,52
599618305512403456,54
599618305520091008,59
599618305527778560,66
599618305535466112,71
599618305543153664,81
599618305550841216,93
599618305558528768,100
599618305566216320,109
599618305573903872,121
599618305581591424,128
599618305589278848,128
599618305596966400,131
599618305604653952,131
599618305612341504,126
599618305620029056,117
599618305627716608,102
599618305635404160,88
599618305643091712,74
599618305650779264,52
599618305658466816,28
599618305666154368,4
599618305673841792,-9
599618305681529344,-19
599618305689216953,-23
599618305696904064,-31
599618305704591232,-33
599618305712278272,-31
599618305719965440,-26
599618305727652608,-23
599618305735339648,-19
599618305743026816,-16
599618305750713856,-11
599618305758401024,-7
599618305766088192,-2
599618305773775232,2
599618305781462400,7
599618305789149568,11
599618305796836608,14
599618305804523776,16
599618305812210944,16
599618305819897984,19
599618305827585152,21
599618305835272320,21
599618305842959360,21
599618305850646528,21
599618305858333568,19
599618305866020736,16
599618305873707904,16
599618305881394944,16
599618305889082112,16
599618305896769280,16
599618305904456320,16
599618305912143488,16
599618305919830656,16
599618305927517696,16
599618305935204864,19
599618305942891904,21
599618305950579072,21
599618305958266240,21
599618305965953280,19
599618305973640448,11
599618305981327616,2
599618305989014656,-4
599618305996701824,-2
599618306004388992,16
599618306012076032,40
599618306019763200,50
599618306027450368,59
599618306035137408,57
599618306042824576,35
599618306050511616,26
599618306058198784,33
599618306065885952,33
599618306073572992,28
599618306081260160,31
599618306088947328,33
599618306096634368,31
599618306104321536,28
599618306112008704,-16
599618306119695744,-143
599618306127382912,-205
599618306135069952,62
599618306142757120,668
599618306150444288,1127
599618306158131328,812
599618306165818496,28
599618306173505664,-281
599618306181192704,-126
599618306188879872,-47
599618306196567040,-35
599618306204254080,4
599618306211941248,4
599618306219628288,-4
599618306227315456,14
599618306235002624,19
599618306242689664,16
599618306250376850,26
599618306258064128,35
599618306265751424,35
599618306273438848,40
599618306281126144,45
599618306288813440,52
599618306296500736,59
599618306304188160,69
599618306311875456,78
599618306319562752,85
599618306327250048,95
599618306334937472,102
599618306342624768,112
599618306350312064,114
599618306357999488,114
599618306365686784,114
599618306373374080,109
599618306381061376,97
599618306388748800,85
599618306396436096,71
599618306404123392,52
599618306411810688,33
599618306419498112,9
599618306427185408,-9
599618306434872704,-21
599618306442560128,-26
599618306450247424,-31
599618306457934720,-38
599618306465622016,-38
599618306473309440,-33
599618306480996736,-33
599618306488684032,-28
599618306496371328,-23
599618306504058752,-19
599618306511746048,-16
599618306519433344,-14
599618306527120768,-11
599618306534808064,-7
599618306542495360,-2
599618306550182656,4
599618306557870080,9
599618306565557376,11
599618306573244672,11
599618306580931968,11
599618306588619392,11
599618306596306688,14
599618306603993984,14
599618306611681408,16
599618306619368704,14
599618306627056000,14
599618306634743296,14
599618306642430720,14
599618306650118016,14
599618306657805312,14
599618306665492608,14
599618306673180032,16
599618306680867328,16
599618306688554624,16
599618306696242048,16
599618306703929344,14
599618306711616640,19
599618306719303936,23
599618306726991360,21
599618306734678656,19
599618306742365952,19
599618306750053248,16
599618306757740672,7
599618306765427968,0
599618306773115264,-4
599618306780802688,7
599618306788489984,31
599618306796177280,45
599618306803864576,57
599618306811552008,62
599618306819239296,50
599618306826926592,28
599618306834614016,23
599618306842301312,28
599618306849988608,31
599618306857675904,31
599618306865363328,31
599618306873050624,31
599618306880737920,31
599618306888425216,16
599618306896112640,-64
599618306903799936,-186
599618306911487232,-128
599618306919174656,308
599618306926861952,917
599618306934549248,1060
599618306942236544,437
599618306949923968,-205
599618306957611264,-229
599618306965298560,-69
599618306972985856,-47
599618306980673280,-16
599618306988360576,9
599618306996047872,-4
599618307003735296,0
599618307011422592,19
599618307019109888,19
599618307026797184,19
599618307034484608,28
599618307042171904,33
599618307049859200,40
599618307057546496,47
599618307065233920,52
599618307072921216,59
599618307080608512,66
599618307088295936,76
599618307095983232,83
599618307103670528,93
599618307111357824,102
599618307119045248,109
599618307126732544,117
599618307134419840,121
599618307142107136,121
599618307149794560,114
599618307157481856,105
599618307165169152,93
599618307172856576,83
599618307180543872,69
599618307188231168,47
599618307195918464,23
599618307203605888,2
599618307211293184,-19
599618307218980480,-31
599618307226667776,-33
599618307234355200,-35
599618307242042496,-42
599618307249729792,-45
599618307257417216,-40
599618307265104512,-38
599618307272791808,-35
599618307280479104,-28
599618307288166528,-26
599618307295853824,-21
599618307303541120,-14
599618307311228416,-14
599618307318915840,-11
599618307326603136,-4
599618307334290432,0
599618307341977856,2
599618307349665152,7
599618307357352448,7
599618307365039744,2
599618307372727162,4
599618307380414592,9
599618307388102016,9
599618307395789568,9
599618307403476992,11
599618307411164416,9
599618307418851968,4
599618307426539392,7
599618307434226944,7
599618307441914368,4
599618307449601792,7
599618307457289344,11
599618307464976768,11
599618307472664192,9
599618307480351744,11
599618307488039168,16
599618307495726592,14
599618307503414144,14
599618307511101568,14
599618307518789120,11
599618307526476544,9
599618307534163968,14
599618307541851520,16
599618307549538944,16
599618307557226368,19
599618307564913920,16
599618307572601344,9
599618307580288768,2
599618307587976320,2
599618307595663744,2
599618307603351168,9
599618307611038720,31
599618307618726144,47
599618307626413696,52
599618307634101120,50
599618307641788544,35
599618307649476096,21
599618307657163520,23
599618307664850944,28
599618307672538496,23
599618307680225920,26
599618307687913344,28
599618307695600896,26
599618307703288320,26
599618307710975872,2
599618307718663296,-105
599618307726350720,-207
599618307734038272,-26
599618307741725696,527
599618307749413120,1062
599618307757100672,912
599618307764788096,112
599618307772475520,-360
599618307780163072,-217
599618307787850496,-76
599618307795538048,-57
599618307803225472,4
599618307810912896,14
599618307818600448,-11
599618307826287872,9
599618307833975296,31
599618307841662848,21
599618307849350272,23
599618307857037696,35
599618307864725248,40
599618307872412672,50
599618307880100224,54
599618307887787648,59
599618307895475072,66
599618307903162624,78
599618307910850048,88
599618307918537472,95
599618307926225024,102
599618307933912494,114
599618307941599616,121
599618307949286784,126
599618307956973952,128
599618307964661248,126
599618307972348416,121
599618307980035584,112
599618307987722752,100
599618307995409920,85
599618308003097088,66
599618308010784384,45
599618308018471552,21
599618308026158720,2
599618308033845888,-11
599618308041533056,-26
599618308049220352,-33
599618308056907520,-38
599618308064594688,-42
599618308072281856,-42
599618308079969024,-40
599618308087656192,-33
599618308095343488,-28
599618308103030656,-26
599618308110717824,-23
599618308118404992,-19
599618308126092160,-11
599618308133779456,-9
599618308141466624,-2
599618308149153792,2
599618308156840960,4
599618308164528128,7
599618308172215424,11
599618308179902592,11
599618308187589760,11
599618308195276928,11
599618308202964096,11
599618308210651264,9
599618308218338560,11
599618308226025728,11
599618308233712896,9
599618308241400064,9
599618308249087232,9
599618308256774528,9
599618308264461696,9
599618308272148864,11
599618308279836032,9
599618308287523200,14
599618308295210368,14
599618308302897664,14
599618308310584832,14
599618308318272000,14
599618308325959168,16
599618308333646336,16
599618308341333632,14
599618308349020800,14
599618308356707968,16
599618308364395136,11
599618308372082304,2
599618308379769472,-2
599618308387456768,-2
599618308395143936,7
599618308402831104,31
599618308410518272,45
599618308418205440,52
599618308425892736,57
599618308433579904,42
599618308441267072,23
599618308448954240,23
599618308456641408,28
599618308464328704,26
599618308472015872,26
599618308479703040,26
599618308487390208,28
599618308495077478,28
599618308502764672,14
599618308510451840,-64
599618308518138880,-198
599618308525826048,-152
599618308533513216,289
599618308541200256,919
599618308548887424,1084
599618308556574464,449
599618308564261632,-224
599618308571948800,-255
599618308579635840,-85
599618308587323008,-57
599618308595010176,-16
599618308602697216,14
599618308610384384,-2
599618308618071552,0
599618308625758592,21
599618308633445760,21
599618308641132928,21
599618308648819968,31
599618308656507136,35
599618308664194176,40
599618308671881344,47
599618308679568512,54
599618308687255552,62
599618308694942720,69
599618308702629888,78
599618308710316928,85
599618308718004096,95
599618308725691264,107
599618308733378304,114
599618308741065472,121
599618308748752512,126
599618308756439680,126
599618308764126848,124
599618308771813888,114
599618308779501056,102
599618308787188224,88
599618308794875264,71
599618308802562432,47
599618308810249600,23
599618308817936640,2
599618308825623808,-16
599618308833310976,-28
599618308840998016,-35
599618308848685184,-40
599618308856372224,-42
599618308864059392,-40
599618308871746560,-40
599618308879433600,-38
599618308887120768,-35
599618308894807936,-31
599618308902494976,-28
599618308910182144,-21
599618308917869312,-14
599618308925556352,-11
599618308933243520,-9
599618308940930560,-2
599618308948617728,2
599618308956304896,4
599618308963991936,7
599618308971679104,9
599618308979366272,11
599618308987053312,11
599618308994740480,11
599618309002427648,9
599618309010114688,9
599618309017801856,9
599618309025488896,9
599618309033176064,11
599618309040863232,9
599618309048550272,9
599618309056237375,11
599618309063924864,11
599618309071612416,11
599618309079299968,11
599618309086987520,11
599618309094675072,11
599618309102362624,14
599618309110050048,14
599618309117737600,14
599618309125425152,14
599618309133112704,16
599618309140800256,16
599618309148487808,16
599618309156175360,14
599618309163862912,16
599618309171550464,16
599618309179238016,11
599618309186925440,9
599618309194612992,4
599618309202300544,-4
599618309209988096,-2
599618309217675648,21
599618309225363200,40
599618309233050752,47
599618309240738304,57
599618309248425856,50
599618309256113408,31
599618309263800960,21
599618309271488384,23
599618309279175936,23
599618309286863488,23
599618309294551040,26
599618309302238592,28
599618309309926144,28
599618309317613696,23
599618309325301248,-21
599618309332988800,-145
599618309340676352,-200
599618309348363904,71
599618309356051328,673
599618309363738880,1108
599618309371426432,778
599618309379113984,4
599618309386801536,-289
599618309394489088,-136
599618309402176640,-59
599618309409864192,-40
599618309417551744,0
599618309425239296,-2
599618309432926720,-11
599618309440614272,7
599618309448301824,16
599618309455989376,14
599618309463676928,19
599618309471364480,26
599618309479052032,31
599618309486739584,35
599618309494427136,45
599618309502114688,52
599618309509802240,59
599618309517489664,66
599618309525177216,76
599618309532864768,85
599618309540552320,95
599618309548239872,105
599618309555927424,114
599618309563614976,119
599618309571302528,124
599618309578990080,124
599618309586677632,119
599618309594365056,109
599618309602052608,97
599618309609740160,78
599618309617427790,59
599618309625115008,35
599618309632802176,9
599618309640489216,-11
599618309648176384,-26
599618309655863552,-38
599618309663550592,-45
599618309671237760,-50
599618309678924800,-47
599618309686611968,-45
599618309694299136,-47
599618309701986176,-45
599618309709673344,-38
599618309717360512,-33
599618309725047552,-33
599618309732734720,-28
599618309740421888,-19
599618309748108928,-16
599618309755796096,-14
599618309763483264,-9
599618309771170304,-2
599618309778857472,0
599618309786544512,2
599618309794231680,2
599618309801918848,2
599618309809605888,4
599618309817293056,2
599618309824980224,4
599618309832667264,4
599618309840354432,4
599618309848041600,4
599618309855728640,2
599618309863415808,2
599618309871102848,4
599618309878790016,7
599618309886477184,7
599618309894164224,4
599618309901851392,4
599618309909538560,7
599618309917225600,7
599618309924912768,4
599618309932599936,4
599618309940286976,11
599618309947974144,14
599618309955661312,11
599618309963348352,11
599618309971035520,11
599618309978722560,11
599618309986409728,11
599618309994096896,11
599618310001783936,9
599618310009471104,4
599618310017158272,2
599618310024845312,-2
599618310032532480,-7
599618310040219648,7
599618310047906688,31
599618310055593856,38
599618310063280896,45
599618310070968064,52
599618310078655232,33
599618310086342272,16
599618310094029440,19
599618310101716608,21
599618310109403648,19
599618310117090816,21
599618310124777984,21
599618310132465024,21
599618310140152192,21
599618310147839232,2
599618310155526400,-90
599618310163213568,-205
599618310170900608,-88
599618310178587687,420
599618310186274816,1005
599618310193961984,988
599618310201649024,241
599618310209336192,-329
599618310217023360,-250
599618310224710400,-90
599618310232397568,-74
599618310240084608,-14
599618310247771776,14
599618310255458944,-11
599618310263145984,-2
599618310270833152,19
599618310278520320,16
599618310286207360,19
599618310293894528,28
599618310301581696,31
599618310309268736,38
599618310316955904,45
599618310324643072,52
599618310332330112,59
599618310340017280,66
599618310347704320,74
599618310355391488,85
599618310363078656,97
599618310370765696,109
599618310378452864,119
599618310386140032,126
599618310393827072,131
599618310401514240,133
599618310409201408,128
599618310416888448,117
599618310424575616,107
599618310432262656,93
599618310439949824,71
599618310447636992,47
599618310455324032,19
599618310463011200,-7
599618310470698368,-23
599618310478385408,-33
599618310486072576,-45
599618310493759744,-54
599618310501446784,-54
599618310509133952,-54
599618310516821120,-57
599618310524508160,-52
599618310532195328,-47
599618310539882368,-42
599618310547569536,-38
599618310555256704,-33
599618310562943744,-31
599618310570630912,-26
599618310578318080,-21
599618310586005120,-16
599618310593692288,-11
599618310601379456,-7
599618310609066496,-4
599618310616753664,-2
599618310624440704,-2
599618310632127872,-2
599618310639815040,0
599618310647502080,0
599618310655189248,0
599618310662876416,0
599618310670563456,0
599618310678250624,0
599618310685937792,-2
599618310693624832,-2
599618310701312000,2
599618310708999040,0
599618310716686208,0
599618310724373376,2
599618310732060416,2
599618310739747584,0
599618310747435136,2
599618310755122688,4
599618310762810240,4
599618310770497792,2
599618310778185344,4
599618310785872896,7
599618310793560320,4
599618310801247872,4
599618310808935424,7
599618310816622976,7
599618310824310528,7
599618310831998080,9
599618310839685632,7
599618310847373184,4
599618310855060736,0
599618310862748288,-7
599618310870435712,-14
599618310878123264,-2
599618310885810816,26
599618310893498368,40
599618310901185920,45
599618310908873472,47
599618310916561024,33
599618310924248576,14
599618310931936128,11
599618310939623680,19
599618310947311232,16
599618310954998656,16
599618310962686208,16
599618310970373760,19
599618310978061312,21
599618310985748864,7
599618310993436416,-71
599618311001123968,-200
599618311008811520,-157
599618311016499072,272
599618311024186624,900
599618311031874176,1089
599618311039561600,480
599618311047249152,-210
599618311054936704,-269
599618311062624256,-102
599618311070311808,-71
599618311077999360,-33
599618311085686912,-2
599618311093374464,-19
599618311101062016,-14
599618311108749568,4
599618311116436992,7
599618311124124544,11
599618311131812096,16
599618311139499648,21
599618311147187200,28
599618311154874752,35
599618311162562304,42
599618311170249856,50
599618311177937408,57
599618311185624960,66
599618311193312512,76
599618311200999936,85
599618311208687488,97
599618311216375040,109
599618311224062592,117
599618311231750144,121
599618311239437696,126
599618311247125248,128
599618311254812800,121
599618311262500352,109
599618311270187904,95
599618311277875328,78
599618311285562880,54
599618311293250432,23
599618311300937999,-2
599618311308625152,-21
599618311316312320,-38
599618311323999360,-47
599618311331686528,-52
599618311339373696,-54
599618311347060736,-57
599618311354747904,-57
599618311362434944,-52
599618311370122112,-50
599618311377809280,-45
599618311385496320,-42
599618311393183488,-38
599618311400870656,-31
599618311408557696,-23
599618311416244864,-21
599618311423932032,-16
599618311431619072,-14
599618311439306240,-9
599618311446993408,-2
599618311454680448,-2
599618311462367616,-2
599618311470054656,2
599618311477741824,4
599618311485428992,2
599618311493116032,0
599618311500803200,2
599618311508490368,2
599618311516177408,2
599618311523864576,2
599618311531551744,4
599618311539238784,4
599618311546925952,4
599618311554612992,2
599618311562300160,2
599618311569987328,4
599618311577674368,7
599618311585361536,9
599618311593048704,9
599618311600735744,7
599618311608422912,7
599618311616110080,9
599618311623797120,9
599618311631484288,9
599618311639171456,9
599618311646858496,9
599618311654545664,9
599618311662232704,9
599618311669919872,9
599618311677607040,11
599618311685294080,14
599618311692981248,14
599618311700668416,11
599618311708355456,9
599618311716042624,4
599618311723729792,-4
599618311731416832,-7
599618311739104000,9
599618311746791040,35
599618311754478208,45
599618311762165376,50
599618311769852416,50
599618311777539584,31
599618311785226752,14
599618311792913792,16
599618311800600960,19
599618311808288128,19
599618311815975168,19
599618311823662336,19
599618311831349376,19
599618311839036544,21
599618311846723712,0
599618311854410752,-93
599618311862097896,-205
599618311869785088,-90
599618311877472256,401
599618311885159424,988
599618311892846720,1017
599618311900533888,317
599618311908221056,-265
599618311915908224,-229
599618311923595392,-88
599618311931282560,-69
599618311938969856,-19
599618311946657024,0
599618311954344192,-19
599618311962031360,-7
599618311969718528,9
599618311977405824,7
599618311985092992,11
599618311992780160,23
599618312000467328,26
599618312008154496,31
599618312015841792,38
599618312023528960,45
599618312031216128,52
599618312038903296,62
599618312046590464,71
599618312054277632,81
599618312061964928,93
599618312069652096,102
599618312077339264,112
599618312085026432,121
599618312092713600,128
599618312100400896,133
599618312108088064,131
599618312115775232,124
599618312123462400,112
599618312131149568,100
599618312138836736,81
599618312146524032,54
599618312154211200,23
599618312161898368,-2
599618312169585536,-23
599618312177272704,-38
599618312184960000,-47
599618312192647168,-52
599618312200334336,-54
599618312208021504,-52
599618312215708672,-54
599618312223395840,-54
599618312231083136,-50
599618312238770304,-45
599618312246457472,-40
599618312254144640,-35
599618312261831808,-31
599618312269519104,-26
599618312277206272,-21
599618312284893440,-19
599618312292580608,-16
599618312300267776,-9
599618312307955072,-2
599618312315642240,-4
599618312323329408,-2
599618312331016576,0
599618312338703744,0
599618312346390912,0
599618312354078208,2
599618312361765376,4
599618312369452544,2
599618312377139712,2
599618312384826880,2
599618312392514176,0
599618312400201344,0
599618312407888512,4
599618312415575680,4
599618312423262884,0
599618312430950272,0
599618312438637696,4
599618312446325248,4
599618312454012672,4
599618312461700096,4
599618312469387648,7
599618312477075072,7
599618312484762624,4
599618312492450048,7
599618312500137472,11
599618312507825024,11
599618312515512448,14
599618312523199872,14
599618312530887424,11
599618312538574848,14
599618312546262272,14
599618312553949824,11
599618312561637248,14
599618312569324800,14
599618312577012224,11
599618312584699648,11
599618312592387200,11
599618312600074624,4
599618312607762048,-4
599618312615449600,-2
599618312623137024,19
599618312630824448,40
599618312638512000,50
599618312646199424,52
599618312653886848,45
599618312661574400,26
599618312669261824,14
599618312676949376,19
599618312684636800,19
599618312692324224,16
599618312700011776,19
599618312707699200,23
599618312715386624,21
599618312723074176,19
599618312730761600,-14
599618312738449024,-124
599618312746136576,-207
599618312753824000,9
599618312761511552,589
599618312769198976,1091
599618312776886400,869
599618312784573952,59
599618312792261376,-353
599618312799948800,-198
599618312807636352,-83
599618312815323776,-66
599618312823011200,-7
599618312830698752,0
599618312838386176,-16
599618312846073728,2
599618312853761152,16
599618312861448576,11
599618312869136128,21
599618312876823552,26
599618312884510976,28
599618312892198528,38
599618312899885952,45
599618312907573376,52
599618312915260928,62
599618312922948352,71
599618312930635776,81
599618312938323328,93
599618312946010752,102
599618312953698304,114
599618312961385728,126
599618312969073152,133
599618312976760704,140
599618312984448212,143
599618312992135552,138
599618312999822848,128
599618313007510272,121
599618313015197568,107
599618313022884864,83
599618313030572160,57
599618313038259584,26
599618313045946880,-2
599618313053634176,-23
599618313061321472,-35
599618313069008896,-47
599618313076696192,-52
599618313084383488,-54
599618313092070912,-57
599618313099758208,-54
599618313107445504,-50
599618313115132800,-50
599618313122820224,-47
599618313130507520,-40
599618313138194816,-33
599618313145882112,-28
599618313153569536,-23
599618313161256832,-21
599618313168944128,-16
599618313176631552,-9
599618313184318848,-7
599618313192006144,-7
599618313199693440,-2
599618313207380864,2
599618313215068160,2
599618313222755456,0
599618313230442752,2
599618313238130176,2
599618313245817472,2
599618313253504768,2
599618313261192192,0
599618313268879488,2
599618313276566784,4
599618313284254080,4
599618313291941504,4
599618313299628800,4
599618313307316096,7
599618313315003392,7
599618313322690816,4
599618313330378112,4
599618313338065408,4
599618313345752832,7
599618313353440128,7
599618313361127424,9
599618313368814720,9
599618313376502144,9
599618313384189440,11
599618313391876736,14
599618313399564032,11
599618313407251456,14
599618313414938752,14
599618313422626048,14
599618313430313472,14
599618313438000768,11
599618313445688064,11
599618313453375360,9
599618313461062784,-2
599618313468750080,-7
599618313476437376,11
599618313484124672,35
599618313491812096,45
599618313499499392,52
599618313507186688,52
599618313514874112,33
599618313522561408,16
599618313530248704,19
599618313537936000,21
599618313545623370,19
599618313553310720,19
599618313560998016,21
599618313568685440,23
599618313576372736,23
599618313584060032,9
599618313591747328,-62
599618313599434752,-193
599618313607122048,-162
599618313614809344,257
599618313622496640,888
599618313630184064,1105
599618313637871360,520
599618313645558656,-195
599618313653246080,-284
599618313660933376,-109
599618313668620672,-74
599618313676307968,-35
599618313683995392,4
599618313691682688,-11
599618313699369984,-11
599618313707057280,7
599618313714744704,9
599618313722432000,11
599618313730119296,21
599618313737806720,26
599618313745494016,28
599618313753181312,38
599618313760868608,45
599618313768556032,50
599618313776243328,64
599618313783930624,76
599618313791617920,81
599618313799305344,88
599618313806992640,102
599618313814679936,114
599618313822367360,124
599618313830054656,136
599618313837741952,143
599618313845429248,140
599618313853116672,133
599618313860803968,126
599618313868491264,114
599618313876178560,93
599618313883865984,64
599618313891553280,35
599618313899240576,4
599618313906928000,-19
599618313914615296,-35
599618313922302592,-47
599618313929989888,-54
599618313937677312,-59
599618313945364608,-59
599618313953051904,-57
599618313960739200,-57
599618313968426624,-52
599618313976113920,-50
599618313983801216,-47
599618313991488640,-42
599618313999175936,-35
599618314006863232,-31
599618314014550528,-26
599618314022237952,-21
599618314029925248,-19
599618314037612544,-14
599618314045299840,-11
599618314052987264,-4
599618314060674560,-2
599618314068361856,0
599618314076049280,0
599618314083736576,0
599618314091423872,0
599618314099111168,0
599618314106798524,0
599618314114485888,0
599618314122173312,0
599618314129860864,2
599618314137548288,4
599618314145235712,2
599618314152923264,0
599618314160610688,2
599618314168298240,4
599618314175985664,2
599618314183673088,4
599618314191360640,7
599618314199048064,7
599618314206735488,7
599618314214423040,7
599618314222110464,4
599618314229797888,7
599618314237485440,9
599618314245172864,9
599618314252860416,9
599618314260547840,11
599618314268235264,11
599618314275922816,14
599618314283610240,11
599618314291297664,11
599618314298985216,14
599618314306672640,14
599618314314360064,9
599618314322047616,9
599618314329735040,9
599618314337422464,0
599618314345110016,-9
599618314352797440,2
599618314360484992,28
599618314368172416,42
599618314375859840,47
599618314383547392,52
599618314391234816,42
599618314398922240,21
599618314406609792,14
599618314414297216,19
599618314421984640,19
599618314429672192,16
599618314437359616,16
599618314445047168,16
599618314452734592,16
599618314460422016,16
599618314468109568,-19
599618314475796992,-133
599618314483484416,-217
599618314491171968,7
599618314498859392,585
599618314506546816,1089
599618314514234368,890
599618314521921792,119
599618314529609344,-293
599618314537296768,-176
599618314544984192,-78
599618314552671744,-64
599618314560359168,-16
599618314568046592,-9
599618314575734144,-23
599618314583421568,-9
599618314591108992,4
599618314598796544,2
599618314606483968,9
599618314614171520,19
599618314621858944,21
599618314629546368,26
599618314637233920,35
599618314644921344,42
599618314652608768,50
599618314660296320,59
599618314667983856,71
599618314675671040,81
599618314683358208,88
599618314691045376,100
599618314698732672,114
599618314706419840,124
599618314714107008,131
599618314721794176,136
599618314729481344,133
599618314737168512,128
599618314744855808,119
599618314752542976,102
599618314760230144,78
599618314767917312,52
599618314775604480,21
599618314783291776,-7
599618314790978944,-31
599618314798666112,-40
599618314806353280,-50
599618314814040448,-59
599618314821727616,-62
599618314829414912,-57
599618314837102080,-57
599618314844789248,-57
599618314852476416,-52
599618314860163584,-47
599618314867850880,-42
599618314875538048,-38
599618314883225216,-35
599618314890912384,-33
599618314898599552,-26
599618314906286848,-21
599618314913974016,-16
599618314921661184,-11
599618314929348352,-9
599618314937035520,-9
599618314944722688,-4
599618314952409984,-4
599618314960097152,-2
599618314967784320,0
599618314975471488,0
599618314983158656,-2
599618314990845952,0
599618314998533120,0
599618315006220288,-2
599618315013907456,-2
599618315021594624,-2
599618315029281792,-2
599618315036969088,0
599618315044656256,2
599618315052343424,2
599618315060030592,2
599618315067717760,2
599618315075405056,2
599618315083092224,4
599618315090779392,4
599618315098466560,4
599618315106153728,4
599618315113840896,4
599618315121528192,7
599618315129215360,7
599618315136902528,7
599618315144589696,9
599618315152276864,9
599618315159964160,7
599618315167651328,9
599618315175338496,11
599618315183025664,14
599618315190712832,14
599618315198400000,14
599618315206087296,9
599618315213774464,9
599618315221461632,9
599618315229148836,0
599618315236835968,-9
599618315244523136,0
599618315252210304,26
599618315259897600,42
599618315267584768,47
599618315275271936,50
599618315282959104,38
599618315290646272,16
599618315298333440,11
599618315306020736,16
599618315313707904,19
599618315321395072,16
599618315329082240,16
599618315336769408,19
599618315344456704,19
599618315352143872,16
599618315359831040,-21
599618315367518208,-136
599618315375205376,-212
599618315382892672,16
599618315390579840,599
599618315398267008,1093
599618315405954176,871
599618315413641344,97
599618315421328512,-298
599618315429015808,-174
599618315436702976,-81
599618315444390144,-62
599618315452077312,-14
599618315459764480,-11
599618315467451776,-23
599618315475138944,-7
599618315482826112,2
599618315490513280,2
599618315498200448,9
599618315505887616,16
599618315513574912,21
599618315521262080,26
599618315528949248,35
599618315536636416,45
599618315544323584,50
599618315552010880,59
599618315559698048,71
599618315567385216,78
599618315575072384,88
599618315582759552,102
599618315590446720,117
599618315598134016,126
599618315605821184,133
599618315613508352,138
599618315621195520,138
599618315628882688,128
599618315636569984,119
599618315644257152,105
599618315651944320,81
599618315659631488,54
599618315667318656,23
599618315675005952,-4
599618315682693120,-28
599618315690380288,-45
599618315698067456,-54
599618315705754624,-57
599618315713441792,-59
599618315721129088,-62
599618315728816256,-57
599618315736503424,-54
599618315744190592,-52
599618315751877760,-47
599618315759565056,-45
599618315767252224,-40
599618315774939392,-33
599618315782626560,-28
599618315790313824,-26
599618315798001280,-23
599618315805688704,-21
599618315813376256,-16
599618315821063680,-9
599618315828751104,-7
599618315836438656,-4
599618315844126080,-2
599618315851813632,-2
599618315859501056,-2
599618315867188480,0
599618315874876032,0
599618315882563456,0
599618315890250880,0
599618315897938432,0
599618315905625856,0
599618315913313280,2
599618315921000832,2
599618315928688256,2
599618315936375808,2
599618315944063232,0
599618315951750656,2
599618315959438208,4
599618315967125632,4
599618315974813056,4
599618315982500608,4
599618315990188032,4
599618315997875456,4
599618316005563008,7
599618316013250432,7
599618316020937856,9
599618316028625408,7
599618316036312832,7
599618316044000384,11
599618316051687808,14
599618316059375232,9
599618316067062784,9
599618316074750208,9
599618316082437632,11
599618316090125184,11
599618316097812608,14
599618316105500032,9
599618316113187584,7
599618316120875008,0
599618316128562560,-7
599618316136249984,2
599618316143937408,26
599618316151624960,45
599618316159312384,52
599618316166999808,52
599618316174687360,38
599618316182374784,19
599618316190062208,11
599618316197749760,14
599618316205437184,16
599618316213124736,16
599618316220812160,16
599618316228499584,16
599618316236187136,19
599618316243874560,19
599618316251561984,-19
599618316259249536,-133
599618316266936960,-212
599618316274624384,9
599618316282311936,587
599618316289999360,1084
599618316297686784,876
599618316305374336,109
599618316313061760,-296
599618316320749312,-181
599618316328436736,-83
599618316336124160,-62
599618316343811712,-11
599618316351499152,-7
599618316359186304,-23
599618316366873472,-7
599618316374560512,4
599618316382247680,4
599618316389934848,11
599618316397621888,19
599618316405309056,19
599618316412996096,28
599618316420683264,40
599618316428370432,45
599618316436057472,54
599618316443744640,62
599618316451431808,71
599618316459118848,81
599618316466806016,93
599618316474493184,105
599618316482180224,117
599618316489867392,128
599618316497554560,138
599618316505241600,143
599618316512928768,143
599618316520615808,138
599618316528302976,128
599618316535990144,112
599618316543677184,90
599618316551364352,59
599618316559051520,26
599618316566738560,-2
599618316574425728,-26
599618316582112896,-42
599618316589799936,-52
599618316597487104,-59
599618316605174144,-62
599618316612861312,-62
599618316620548480,-57
599618316628235520,-54
599618316635922688,-54
599618316643609856,-52
599618316651296896,-47
599618316658984064,-45
599618316666671232,-40
599618316674358272,-33
599618316682045440,-26
599618316689732608,-23
599618316697419648,-21
599618316705106816,-19
599618316712793856,-11
599618316720481024,-9
599618316728168192,-4
599618316735855232,-4
599618316743542400,-4
599618316751229568,-2
599618316758916608,0
599618316766603776,0
599618316774290944,-2
599618316781977984,-2
599618316789665152,0
599618316797352192,2
599618316805039360,-2
599618316812726528,0
599618316820413568,2
599618316828100736,2
599618316835787904,0
599618316843474944,0
599618316851162112,0
599618316858849280,2
599618316866536320,4
599618316874223488,4
599618316881910528,4
599618316889597696,7
599618316897284864,7
599618316904971904,7
599618316912659049,7
599618316920346496,7
599618316928033920,7
599618316935721344,9
599618316943408640,11
599618316951096064,11
599618316958783488,9
599618316966470912,11
599618316974158336,14
599618316981845760,11
599618316989533056,7
599618316997220480,7
599618317004907904,0
599618317012595328,-7
599618317020282752,2
599618317027970048,28
599618317035657472,45
599618317043344896,47
599618317051032320,52
599618317058719744,40
599618317066407168,14
599618317074094464,11
599618317081781888,19
599618317089469312,14
599618317097156736,11
599618317104844160,16
599618317112531456,21
599618317120218880,21
599618317127906304,19
599618317135593728,-9
599618317143281152,-114
599618317150968576,-212
599618317158655872,-35
599618317166343296,518
599618317174030720,1062
599618317181718144,929
599618317189405568,126
599618317197092864,-370
599618317204780288,-234
599618317212467712,-95
599618317220155136,-83
599618317227842560,-16
599618317235529984,2
599618317243217280,-19
599618317250904704,0
599618317258592128,16
599618317266279552,11
599618317273966976,19
599618317281654272,26
599618317289341696,31
599618317297029120,40
599618317304716544,50
599618317312403968,54
599618317320091392,59
599618317327778688,69
599618317335466112,81
599618317343153536,90
599618317350840960,102
599618317358528384,119
599618317366215680,133
599618317373903104,145
599618317381590528,157
599618317389277952,160
599618317396965376,160
599618317404652672,157
599618317412340096,148
599618317420027520,131
599618317427714944,107
599618317435402368,76
599618317443089792,35
599618317450777088,2
599618317458464512,-23
599618317466151936,-45
599618317473839294,-62
599618317481526784,-66
599618317489214336,-66
599618317496902016,-66
599618317504589568,-66
599618317512277248,-66
599618317519964800,-66
599618317527652480,-59
599618317535340032,-52
599618317543027712,-52
599618317550715264,-47
599618317558402944,-40
599618317566090496,-38
599618317573778048,-31
599618317581465728,-23
599618317589153280,-21
599618317596840960,-21
599618317604528512,-14
599618317612216192,-9
599618317619903744,-9
599618317627591424,-9
599618317635278976,-4
599618317642966528,-9
599618317650654208,-9
599618317658341760,-4
599618317666029440,-2
599618317673716992,-2
599618317681404672,-4
599618317689092224,-7
599618317696779904,-7
599618317704467456,-2
599618317712155136,2
599618317719842688,0
599618317727530240,0
599618317735217920,0
599618317742905472,-2
599618317750593152,0
599618317758280704,0
599618317765968384,-2
599618317773655936,0
599618317781343616,4
599618317789031168,9
599618317796718720,7
599618317804406400,4
599618317812093952,7
599618317819781632,11
599618317827469184,9
599618317835156864,0
599618317842844416,2
599618317850532096,4
599618317858219648,-4
599618317865907328,-9
599618317873594880,14
599618317881282432,40
599618317888970112,45
599618317896657664,45
599618317904345344,40
599618317912032896,19
599618317919720576,7
599618317927408128,14
599618317935095808,14
599618317942783360,9
599618317950470912,11
599618317958158592,19
599618317965846144,16
599618317973533824,16
599618317981221376,11
599618317988909056,-45
599618317996596608,-183
599618318004284288,-217
599618318011971840,140
599618318019659520,807
599618318027347072,1160
599618318035034796,618
599618318042721536,-246
599618318050408320,-403
599618318058095104,-150
599618318065781888,-105
599618318073468672,-66
599618318081155456,19
599618318088842240,0
599618318096528896,-16
599618318104215680,16
599618318111902464,26
599618318119589248,23
599618318127276032,35
599618318134962816,40
599618318142649600,40
599618318150336384,50
599618318158023168,62
599618318165709952,66
599618318173396736,74
599618318181083520,88
599618318188770176,100
599618318196456960,112
599618318204143744,124
599618318211830528,136
599618318219517312,152
599618318227204096,171
599618318234890880,179
599618318242577664,174
599618318250264448,174
599618318257951232,171
599618318265638016,160
599618318273324800,136
599618318281011456,107
599618318288698240,66
599618318296385024,16
599618318304071808,-19
599618318311758592,-40
599618318319445376,-57
599618318327132160,-69
599618318334818944,-74
599618318342505728,-76
599618318350192512,-74
599618318357879296,-71
599618318365566080,-71
599618318373252736,-66
599618318380939520,-62
599618318388626304,-59
599618318396313088,-52
599618318403999872,-47
599618318411686656,-45
599618318419373440,-38
599618318427060224,-33
599618318434747008,-28
599618318442433792,-23
599618318450120576,-21
599618318457807360,-19
599618318465494016,-16
599618318473180800,-11
599618318480867584,-9
599618318488554368,-11
599618318496241152,-11
599618318503927936,-9
599618318511614720,-9
599618318519301504,-11
599618318526988288,-9
599618318534675072,-4
599618318542361856,-9
599618318550048640,-9
599618318557735296,-7
599618318565422080,-7
599618318573108864,-9
599618318580795648,-7
599618318588482432,-7
599618318596169258,-7
599618318603856384,-2
599618318611543552,-2
599618318619230720,-4
599618318626918016,2
599618318634605184,4
599618318642292352,-4
599618318649979520,-4
599618318657666688,2
599618318665353856,-7
599618318673041152,-19
599618318680728320,-9
599618318688415488,9
599618318696102656,21
599618318703789824,31
599618318711477120,42
599618318719164288,35
599618318726851456,16
599618318734538624,7
599618318742225792,9
599618318749913088,9
599618318757600256,7
599618318765287424,9
599618318772974592,14
599618318780661760,11
599618318788348928,11
599618318796036224,7
599618318803723392,-47
599618318811410560,-183
599618318819097728,-231
599618318826784896,102
599618318834472192,766
599618318842159360,1158
599618318849846528,661
599618318857533696,-210
599618318865220864,-406
599618318872908032,-148
599618318880595328,-97
599618318888282496,-74
599618318895969664,11
599618318903656832,0
599618318911344000,-21
599618318919031296,11
599618318926718464,23
599618318934405632,14
599618318942092800,16
599618318949779968,31
599618318957467136,38
599618318965154432,40
599618318972841600,50
599618318980528768,62
599618318988215936,71
599618318995903104,76
599618319003590400,85
599618319011277568,105
599618319018964736,124
599618319026651904,138
599618319034339072,152
599618319042026368,167
599618319049713536,179
599618319057400704,186
599618319065087872,186
599618319072775040,181
599618319080462208,169
599618319088149504,145
599618319095836672,109
599618319103523840,62
599618319111211008,9
599618319118898176,-26
599618319126585472,-47
599618319134272640,-66
599618319141959808,-83
599618319149646976,-85
599618319157334246,-81
599618319165021696,-83
599618319172709120,-83
599618319180396672,-76
599618319188084096,-69
599618319195771520,-74
599618319203459072,-71
599618319211146496,-59
599618319218834048,-57
599618319226521472,-59
599618319234208896,-50
599618319241896448,-38
599618319249583872,-35
599618319257271296,-33
599618319264958848,-26
599618319272646272,-23
599618319280333696,-23
599618319288021248,-14
599618319295708672,-9
599618319303396224,-14
599618319311083648,-14
599618319318771072,-9
599618319326458624,-14
599618319334146048,-14
599618319341833472,-7
599618319349521024,-7
599618319357208448,-9
599618319364895872,-7
599618319372583424,-11
599618319380270848,-11
599618319387958272,-4
599618319395645824,-2
599618319403333248,-9
599618319411020800,-11
599618319418708224,-2
599618319426395648,-4
599618319434083200,-11
599618319441770624,-14
599618319449458048,-16
599618319457145600,-21
599618319464833024,-9
599618319472520448,14
599618319480208000,23
599618319487895424,31
599618319495582976,38
599618319503270400,23
599618319510957824,4
599618319518645376,4
599618319526332800,4
599618319534020224,2
599618319541707776,2
599618319549395200,7
599618319557082624,11
599618319564770176,11
599618319572457600,9
599618319580145152,-19
599618319587832576,-128
599618319595520000,-246
599618319603207552,-90
599618319610894976,475
599618319618582400,1070
599618319626269952,967
599618319633957376,143
599618319641644800,-379
599618319649332352,-226
599618319657019776,-83
599618319664707200,-93
599618319672394752,-16
599618319680082176,9
599618319687769728,-35
599618319695457152,-16
599618319703144576,16
599618319710832128,9
599618319718519574,9
599618319726206720,23
599618319733893888,28
599618319741580928,26
599618319749268096,35
599618319756955264,52
599618319764642304,66
599618319772329472,71
599618319780016512,74
599618319787703680,88
599618319795390848,107
599618319803077888,126
599618319810765056,143
599618319818452224,162
599618319826139264,179
599618319833826432,193
599618319841513600,198
599618319849200640,195
599618319856887808,186
599618319864574976,160
599618319872262016,121
599618319879949184,78
599618319887636224,28
599618319895323392,-11
599618319903010560,-42
599618319910697600,-69
599618319918384768,-81
599618319926071936,-83
599618319933758976,-88
599618319941446144,-95
599618319949133312,-90
599618319956820352,-76
599618319964507520,-69
599618319972194560,-74
599618319979881728,-74
599618319987568896,-66
599618319995255936,-59
599618320002943104,-57
599618320010630272,-57
599618320018317312,-47
599618320026004480,-40
599618320033691648,-40
599618320041378688,-33
599618320049065856,-23
599618320056753024,-16
599618320064440064,-14
599618320072127232,-14
599618320079814272,-16
599618320087501440,-11
599618320095188608,-7
599618320102875648,-7
599618320110562816,-4
599618320118249984,-2
599618320125937024,-7
599618320133624192,-7
599618320141311360,-4
599618320148998400,-7
599618320156685568,-4
599618320164372608,-2
599618320172059776,0
599618320179746944,-2
599618320187433984,-2
599618320195121152,2
599618320202808320,0
599618320210495360,0
599618320218182528,2
599618320225869696,0
599618320233556736,2
599618320241243904,2
599618320248930944,4
599618320256618112,-4
599618320264305280,-19
599618320271992320,-14
599618320279679471,11
599618320287366912,33
599618320295054336,35
599618320302741760,40
599618320310429056,35
599618320318116480,19
599618320325803904,14
599618320333491328,16
599618320341178752,14
599618320348866176,11
599618320356553472,16
599618320364240896,16
599618320371928320,14
599618320379615744,14
599618320387303168,16
599618320394990464,-14
599618320402677888,-136
599618320410365312,-243
599618320418052736,-26
599618320425740160,597
599618320433427584,1117
599618320441114880,850
599618320448802304,23
599618320456489728,-343
599618320464177152,-160
599618320471864576,-59
599618320479551872,-66
599618320487239296,-7
599618320494926720,11
599618320502614144,-14
599618320510301568,4
599618320517988992,26
599618320525676288,19
599618320533363712,28
599618320541051136,40
599618320548738560,35
599618320556425984,45
599618320564113280,62
599618320571800704,62
599618320579488128,66
599618320587175552,88
599618320594862976,102
599618320602550400,109
599618320610237696,121
599618320617925120,140
599618320625612544,160
599618320633299968,183
599618320640987392,210
599618320648674688,212
599618320656362112,205
599618320664049536,217
599618320671736960,217
599618320679424384,183
599618320687111808,143
599618320694799104,102
599618320702486528,52
599618320710173952,9
599618320717861376,-16
599618320725548800,-38
599618320733236096,-52
599618320740923520,-59
599618320748610944,-59
599618320756298368,-57
599618320763985792,-52
599618320771673088,-47
599618320779360512,-45
599618320787047936,-45
599618320794735360,-45
599618320802422784,-40
599618320810110208,-33
599618320817797504,-28
599618320825484928,-31
599618320833172352,-26
599618320840859716,-19
599618320848547072,-16
599618320856234368,-14
599618320863921536,-9
599618320871608832,-4
599618320879296128,-2
599618320886983424,-4
599618320894670592,2
599618320902357888,9
599618320910045184,9
599618320917732480,14
599618320925419648,9
599618320933106944,-2
599618320940794240,4
599618320948481408,16
599618320956168704,14
599618320963856000,11
599618320971543296,11
599618320979230464,7
599618320986917760,4
599618320994605056,14
599618321002292352,19
599618321009979520,16
599618321017666816,11
599618321025354112,11
599618321033041280,14
599618321040728576,16
599618321048415872,19
599618321056103168,16
599618321063790336,9
599618321071477632,16
599618321079164928,21
599618321086852224,9
599618321094539392,-9
599618321102226688,-7
599618321109913984,14
599618321117601152,31
599618321125288448,38
599618321132975744,45
599618321140663040,47
599618321148350208,35
599618321156037504,21
599618321163724800,16
599618321171412096,19
599618321179099264,19
599618321186786560,21
599618321194473856,21
599618321202161024,21
599618321209848320,23
599618321217535616,21
599618321225222912,14
599618321232910080,-40
599618321240597376,-171
599618321248284672,-214
599618321255971968,119
599618321263659136,745
599618321271346432,1055
599618321279033728,585
599618321286720896,-138
599618321294408192,-281
599618321302095488,-90
599618321309782784,-54
599618321317469952,-40
599618321325157248,14
599618321332844544,7
599618321340531840,0
599618321348219008,14
599618321355906304,16
599618321363593600,23
599618321371280896,33
599618321378968064,35
599618321386655360,40
599618321394342656,47
599618321402029783,50
599618321409716992,54
599618321417404160,66
599618321425091200,81
599618321432778368,90
599618321440465536,102
599618321448152576,114
599618321455839744,124
599618321463526784,145
599618321471213952,176
599618321478901120,191
599618321486588160,193
599618321494275328,195
599618321501962496,188
599618321509649536,179
599618321517336704,162
599618321525023872,117
599618321532710912,57
599618321540398080,19
599618321548085248,-19
599618321555772288,-50
599618321563459456,-62
599618321571146496,-71
599618321578833664,-76
599618321586520832,-76
599618321594207872,-74
599618321601895040,-69
599618321609582208,-62
599618321617269248,-59
599618321624956416,-62
599618321632643584,-59
599618321640330624,-50
599618321648017792,-57
599618321655704832,-52
599618321663392000,-35
599618321671079168,-35
599618321678766208,-42
599618321686453376,-33
599618321694140544,-26
599618321701827584,-28
599618321709514752,-23
599618321717201920,-11
599618321724888960,-4
599618321732576128,-11
599618321740263296,-19
599618321747950336,-9
599618321755637504,2
599618321763324544,4
599618321771011712,-4
599618321778698880,-9
599618321786385920,-2
599618321794073088,7
599618321801760256,4
599618321809447296,-7
599618321817134464,-2
599618321824821632,9
599618321832508672,7
599618321840195840,4
599618321847882880,4
599618321855570048,2
599618321863257216,2
599618321870944256,11
599618321878631424,21
599618321886318592,11
599618321894005632,0
599618321901692800,7
599618321909379968,16
599618321917067008,11
599618321924754176,11
599618321932441216,11
599618321940128384,11
599618321947815552,11
599618321955502592,9
599618321963189680,11
599618321970877184,16
599618321978564736,9
599618321986252288,9
599618321993939840,16
599618322001627392,16
599618322009314944,11
599618322017002368,19
599618322024689920,19
599618322032377472,7
599618322040065024,9
599618322047752576,16
599618322055440128,4
599618322063127680,-7
599618322070815232,7
599618322078502784,33
599618322086190336,50
599618322093877760,45
599618322101565312,40
599618322109252864,38
599618322116940416,26
599618322124627968,16
599618322132315520,16
599618322140003072,26
599618322147690624,26
599618322155378176,19
599618322163065728,19
599618322170753280,23
599618322178440704,28
599618322186128256,19
599618322193815808,-62
599618322201503360,-203
599618322209190912,-183
599618322216878464,205
599618322224566016,797
599618322232253568,1007
599618322239941120,480
599618322247628672,-169
599618322255316224,-238
599618322263003648,-66
599618322270691200,-47
599618322278378752,-26
599618322286066304,4
599618322293753856,-16
599618322301441408,-11
599618322309128960,16
599618322316816512,16
599618322324504064,9
599618322332191616,11
599618322339879040,16
599618322347566592,21
599618322355254144,31
599618322362941696,38
599618322370629248,38
599618322378316800,40
599618322386004352,57
599618322393691904,71
599618322401379456,74
599618322409067008,85
599618322416754560,112
599618322424441984,124
599618322432129536,128
599618322439817088,148
599618322447504640,167
599618322455192192,164
599618322462879744,148
599618322470567296,138
599618322478254848,131
599618322485942400,95
599618322493629952,45
599618322501317504,2
599618322509004928,-28
599618322516692480,-50
599618322524380099,-64
599618322532067328,-76
599618322539754496,-81
599618322547441536,-78
599618322555128704,-76
599618322562815872,-74
599618322570502912,-83
599618322578190080,-107
599618322585877120,-93
599618322593564288,-54
599618322601251456,-50
599618322608938496,-54
599618322616625664,-50
599618322624312832,-45
599618322631999872,-42
599618322639687040,-38
599618322647374208,-31
599618322655061248,-26
599618322662748416,-31
599618322670435584,-31
599618322678122624,-11
599618322685809792,2
599618322693496832,-14
599618322701184000,-23
599618322708871168,-2
599618322716558208,9
599618322724245376,-7
599618322731932544,-11
599618322739619584,9
599618322747306752,9
599618322754993920,-9
599618322762680960,-11
599618322770368128,2
599618322778055168,9
599618322785742336,7
599618322793429504,-2
599618322801116544,0
599618322808803712,9
599618322816490880,9
599618322824177920,0
599618322831865088,2
599618322839552256,7
599618322847239296,4
599618322854926464,7
599618322862613632,11
599618322870300672,7
599618322877987840,0
599618322885674880,11
599618322893362048,16
599618322901049216,0
599618322908736256,0
599618322916423424,11
599618322924110592,9
599618322931797632,2
599618322939484800,2
599618322947171968,9
599618322954859008,11
599618322962546176,2
599618322970233216,14
599618322977920384,21
599618322985607552,4
599618322993294592,0
599618323000981760,14
599618323008668928,26
599618323016355968,21
599618323024043136,-2
599618323031730304,-4
599618323039417344,9
599618323047104512,11
599618323054791552,19
599618323062478720,40
599618323070165888,54
599618323077852928,47
599618323085539996,28
599618323093227136,21
599618323100914304,23
599618323108601344,21
599618323116288512,16
599618323123975680,21
599618323131662720,23
599618323139349888,19
599618323147036928,19
599618323154724096,23
599618323162411264,16
599618323170098304,-52
599618323177785472,-191
599618323185472640,-195
599618323193159680,157
599618323200846848,730
599618323208534016,979
599618323216221056,513
599618323223908224,-126
599618323231595392,-222
599618323239282432,-69
599618323246969600,-64
599618323254656640,-40
599618323262343808,16
599618323270030976,0
599618323277718016,-14
599618323285405184,14
599618323293092352,21
599618323300779392,4
599618323308466560,21
599618323316153728,38
599618323323840768,26
599618323331527936,21
599618323339214976,47
599618323346902144,64
599618323354589312,57
599618323362276352,62
599618323369963520,78
599618323377650688,85
599618323385337728,95
599618323393024896,117
599618323400712064,133
599618323408399104,152
599618323416086272,167
599618323423773440,164
599618323431460480,152
599618323439147648,162
599618323446834688,171
599618323454521856,136
599618323462209024,81
599618323469896064,52
599618323477583232,26
599618323485270400,-16
599618323492957440,-47
599618323500644608,-57
599618323508331776,-69
599618323516018816,-81
599618323523705984,-69
599618323531393024,-64
599618323539080192,-76
599618323546767360,-64
599618323554454400,-52
599618323562141568,-69
599618323569828736,-71
599618323577515776,-52
599618323585202944,-52
599618323592890112,-52
599618323600577152,-38
599618323608264320,-42
599618323615951360,-42
599618323623638528,-26
599618323631325696,-26
599618323639012736,-33
599618323646699893,-26
599618323654387328,-11
599618323662074752,-2
599618323669762176,-9
599618323677449472,-9
599618323685136896,0
599618323692824320,2
599618323700511744,-4
599618323708199168,-4
599618323715886592,9
599618323723573888,7
599618323731261312,-9
599618323738948736,11
599618323746636160,19
599618323754323584,-16
599618323762010880,-11
599618323769698304,21
599618323777385728,9
599618323785073152,-16
599618323792760576,11
599618323800448000,26
599618323808135296,2
599618323815822720,4
599618323823510144,7
599618323831197568,-4
599618323838884992,0
599618323846572288,21
599618323854259712,21
599618323861947136,4
599618323869634560,0
599618323877321984,4
599618323885009408,11
599618323892696704,9
599618323900384128,0
599618323908071552,9
599618323915758976,16
599618323923446400,4
599618323931133696,4
599618323938821120,16
599618323946508544,9
599618323954195968,2
599618323961883392,9
599618323969570816,11
599618323977258112,11
599618323984945536,11
599618323992632960,11
599618324000320384,9
599618324008007808,2
599618324015695104,-2
599618324023382528,2
599618324031069952,2
599618324038757376,4
599618324046444800,21
599618324054132224,35
599618324061819520,35
599618324069506944,35
599618324077194368,35
599618324084881792,14
599618324092569216,-2
599618324100256512,14
599618324107943936,26
599618324115631360,21
599618324123318784,9
599618324131006208,-2
599618324138693504,16
599618324146380928,31
599618324154068352,0
599618324161755776,-57
599618324169443200,-171
599618324177130624,-219
599618324184817920,69
599618324192505344,625
599618324200192768,960
599618324207880138,632
599618324215567488,-19
599618324223254784,-250
599618324230941952,-112
599618324238629248,-50
599618324246316544,-50
599618324254003840,-19
599618324261691008,-9
599618324269378304,-9
599618324277065600,2
599618324284752896,-4
599618324292440064,-7
599618324300127360,19
599618324307814656,23
599618324315501824,9
599618324323189120,19
599618324330876416,45
599618324338563712,40
599618324346250880,31
599618324353938176,62
599618324361625472,74
599618324369312768,57
599618324376999936,78
599618324384687232,112
599618324392374528,119
599618324400061696,117
599618324407748992,136
599618324415436288,150
599618324423123584,148
599618324430810752,160
599618324438498048,152
599618324446185344,107
599618324453872640,78
599618324461559808,66
599618324469247104,16
599618324476934400,-38
599618324484621568,-52
599618324492308864,-54
599618324499996160,-64
599618324507683456,-78
599618324515370624,-81
599618324523057920,-64
599618324530745216,-62
599618324538432512,-66
599618324546119680,-59
599618324553806976,-54
599618324561494272,-57
599618324569181440,-59
599618324576868736,-57
599618324584556032,-50
599618324592243328,-42
599618324599930496,-40
599618324607617792,-40
599618324615305088,-33
599618324622992384,-31
599618324630679552,-31
599618324638366848,-19
599618324646054144,-16
599618324653741312,-11
599618324661428608,7
599618324669115904,-4
599618324676803200,-23
599618324684490368,2
599618324692177664,11
599618324699864960,-14
599618324707552256,-11
599618324715239424,2
599618324722926720,-4
599618324730614016,-4
599618324738301312,4
599618324745988480,0
599618324753675776,-9
599618324761363072,-2
599618324769050205,2
599618324776737408,-2
599618324784424576,-4
599618324792111616,-7
599618324799798784,0
599618324807485952,0
599618324815172992,-9
599618324822860160,0
599618324830547200,7
599618324838234368,-4
599618324845921536,-2
599618324853608576,11
599618324861295744,0
599618324868982912,-4
599618324876669952,4
599618324884357120,0
599618324892044288,0
599618324899731328,4
599618324907418496,2
599618324915105664,4
599618324922792704,9
599618324930479872,-2
599618324938166912,-4
599618324945854080,16
599618324953541248,19
599618324961228288,2
599618324968915456,-2
599618324976602624,4
599618324984289664,16
599618324991976832,16
599618324999664000,4
599618325007351040,4
599618325015038208,19
599618325022725248,9
599618325030412416,-21
599618325038099584,-83
599618325045786624,-136
599618325053473792,-74
599618325061160960,31
599618325068848000,40
599618325076535168,11
599618325084222336,33
599618325091909376,54
599618325099596544,33
599618325107283712,2
599618325114970752,11
599618325122657920,28
599618325130344960,16
599618325138032128,11
599618325145719296,28
599618325153406336,23
599618325161093504,9
599618325168780672,14
599618325176467712,-28
599618325184154880,-155
599618325191842048,-214
599618325199529088,35
599618325207216256,580
599618325214903296,976
599618325222590464,723
599618325230277632,47
599618325237964672,-243
599618325245651840,-95
599618325253339008,-26
599618325261026048,-50
599618325268713216,-14
599618325276400384,0
599618325284087424,-14
599618325291774592,-4
599618325299461632,9
599618325307148800,9
599618325314835968,7
599618325322523008,16
599618325330210102,33
599618325337897216,28
599618325345584384,23
599618325353271552,40
599618325360958848,47
599618325368646016,47
599618325376333184,54
599618325384020352,76
599618325391707520,90
599618325399394688,88
599618325407081984,102
599618325414769152,124
599618325422456320,126
599618325430143488,136
599618325437830656,148
599618325445517952,148
599618325453205120,140
599618325460892288,121
599618325468579456,95
599618325476266624,66
599618325483953920,23
599618325491641088,-23
599618325499328256,-40
599618325507015424,-42
599618325514702592,-64
599618325522389760,-78
599618325530077056,-64
599618325537764224,-59
599618325545451392,-71
599618325553138560,-74
599618325560825728,-59
599618325568513024,-50
599618325576200192,-52
599618325583887360,-66
599618325591574528,-71
599618325599261696,-47
599618325606948864,-33
599618325614636160,-54
599618325622323328,-47
599618325630010496,-26
599618325637697664,-35
599618325645384832,-35
599618325653072128,-21
599618325660759296,-16
599618325668446464,-16
599618325676133632,-21
599618325683820800,-7
599618325691507968,-4
599618325699195264,-19
599618325706882432,-14
599618325714569600,0
599618325722256768,0
599618325729943936,-9
599618325737631232,-9
599618325745318400,-2
599618325753005568,-2
599618325760692736,-2
599618325768379904,-2
599618325776067200,-9
599618325783754368,0
599618325791441536,4
599618325799128704,-11
599618325806815872,-7
599618325814503040,4
599618325822190336,-2
599618325829877504,0
599618325837564672,2
599618325845251840,-2
599618325852939008,7
599618325860626304,9
599618325868313472,-4
599618325876000640,-14
599618325883687808,-19
599618325891375090,-57
599618325899062528,-126
599618325906749952,-136
599618325914437504,-81
599618325922124928,-85
599618325929812352,-93
599618325937499904,-16
599618325945187328,28
599618325952874880,2
599618325960562304,-2
599618325968249728,21
599618325975937280,19
599618325983624704,2
599618325991312128,9
599618325998999680,16
599618326006687104,14
599618326014374528,14
599618326022062080,-9
599618326029749504,-85
599618326037437056,-143
599618326045124480,-145
599618326052811904,-138
599618326060499456,-97
599618326068186880,-9
599618326075874304,42
599618326083561856,40
599618326091249280,38
599618326098936704,42
599618326106624256,45
599618326114311680,38
599618326121999104,9
599618326129686656,-16
599618326137374080,2
599618326145061632,45
599618326152749056,40
599618326160436480,21
599618326168124032,28
599618326175811456,19
599618326183498880,-74
599618326191186432,-212
599618326198873856,-150
599618326206561280,281
599618326214248832,826
599618326221936256,964
599618326229623808,449
599618326237311232,-131
599618326244998656,-171
599618326252686208,-40
599618326260373632,-50
599618326268061056,-26
599618326275748608,2
599618326283436032,-14
599618326291123456,-7
599618326298811008,16
599618326306498432,14
599618326314185984,7
599618326321873408,11
599618326329560832,19
599618326337248384,33
599618326344935808,42
599618326352623232,35
599618326360310784,40
599618326367998208,50
599618326375685632,59
599618326383373184,74
599618326391060608,88
599618326398748032,93
599618326406435584,105
599618326414123008,124
599618326421810560,133
599618326429497984,136
599618326437185408,148
599618326444872960,160
599618326452560418,157
599618326460247552,143
599618326467934720,128
599618326475621760,90
599618326483308928,45
599618326490996096,19
599618326498683136,-9
599618326506370304,-35
599618326514057344,-45
599618326521744512,-62
599618326529431680,-69
599618326537118720,-69
599618326544805888,-66
599618326552493056,-54
599618326560180096,-45
599618326567867264,-50
599618326575554432,-52
599618326583241472,-52
599618326590928640,-57
599618326598615808,-50
599618326606302848,-35
599618326613990016,-35
599618326621677056,-35
599618326629364224,-31
599618326637051392,-33
599618326644738432,-23
599618326652425600,-9
599618326660112768,-16
599618326667799808,-23
599618326675486976,-7
599618326683174144,7
599618326690861184,2
599618326698548352,-2
599618326706235392,0
599618326713922560,2
599618326721609728,0
599618326729296768,2
599618326736983936,11
599618326744671104,14
599618326752358144,2
599618326760045312,-2
599618326767732480,2
599618326775419520,2
599618326783106688,9
599618326790793856,14
599618326798480896,7
599618326806168064,7
599618326813855104,7
599618326821542272,-2
599618326829229440,4
599618326836916480,16
599618326844603648,9
599618326852290816,4
599618326859977856,7
599618326867665024,7
599618326875352192,9
599618326883039232,7
599618326890726400,7
599618326898413440,14
599618326906100608,14
599618326913787776,9
599618326921474816,11
599618326929161984,11
599618326936849152,11
599618326944536192,14
599618326952223360,14
599618326959910528,14
599618326967597568,14
599618326975284736,11
599618326982971776,14
599618326990658944,14
599618326998346112,16
599618327006033152,14
599618327013720315,11
599618327021407488,11
599618327029094656,16
599618327036781696,21
599618327044468864,19
599618327052156032,16
599618327059843072,14
599618327067530240,14
599618327075217280,16
599618327082904448,19
599618327090591616,19
599618327098278656,14
599618327105965824,14
599618327113652992,14
599618327121340032,2
599618327129027200,-7
599618327136714368,11
599618327144401408,33
599618327152088576,42
599618327159775744,45
599618327167462784,47
599618327175149952,38
599618327182836992,19
599618327190524160,11
599618327198211328,19
599618327205898368,19
599618327213585536,14
599618327221272704,16
599618327228959744,23
599618327236646912,21
599618327244334080,16
599618327252021120,-16
599618327259708288,-133
599618327267395328,-234
599618327275082496,-57
599618327282769664,472
599618327290456704,976
599618327298143872,881
599618327305831040,219
599618327313518080,-205
599618327321205248,-124
599618327328892416,-38
599618327336579456,-62
599618327344266624,-33
599618327351953792,-14
599618327359640832,-31
599618327367328000,-26
599618327375015040,-11
599618327382702208,-11
599618327390389376,-4
599618327398076416,9
599618327405763584,7
599618327413450752,4
599618327421137792,14
599618327428824960,26
599618327436512128,26
599618327444199168,33
599618327451886336,50
599618327459573376,59
599618327467260544,66
599618327474947712,78
599618327482634752,88
599618327490321920,102
599618327498009088,121
599618327505696128,128
599618327513383296,136
599618327521070464,143
599618327528757504,133
599618327536444672,121
599618327544131712,107
599618327551818880,76
599618327559506048,40
599618327567193088,7
599618327574880212,-21
599618327582567424,-40
599618327590254592,-50
599618327597941632,-57
599618327605628800,-62
599618327613315968,-69
599618327621003008,-64
599618327628690176,-57
599618327636377216,-50
599618327644064384,-52
599618327651751552,-54
599618327659438592,-50
599618327667125760,-42
599618327674812928,-42
599618327682499968,-38
599618327690187136,-35
599618327697874304,-33
599618327705561344,-23
599618327713248512,-23
599618327720935680,-31
599618327728622720,-23
599618327736309888,-11
599618327743996928,-11
599618327751684096,-9
599618327759371264,-7
599618327767058304,-4
599618327774745472,2
599618327782432640,-2
599618327790119680,-4
599618327797806848,0
599618327805494016,2
599618327813181056,-2
599618327820868224,-4
599618327828555264,2
599618327836242432,7
599618327843929600,0
599618327851616640,-2
599618327859303808,4
599618327866990976,9
599618327874678016,4
599618327882365184,4
599618327890052352,7
599618327897739392,4
599618327905426560,9
599618327913113728,11
599618327920800768,4
599618327928487936,4
599618327936174976,9
599618327943862144,7
599618327951549312,7
599618327959236352,9
599618327966923520,9
599618327974610688,9
599618327982297728,11
599618327989984896,14
599618327997672064,14
599618328005359104,7
599618328013046272,7
599618328020733312,14
599618328028420480,16
599618328036107648,11
599618328043794688,14
599618328051481856,19
599618328059169024,19
599618328066856064,14
599618328074543232,11
599618328082230400,14
599618328089917440,11
599618328097604608,16
599618328105291648,21
599618328112978816,16
599618328120665984,19
599618328128353024,21
599618328136040109,19
599618328143727232,19
599618328151414400,16
599618328159101440,14
599618328166788608,14
599618328174475776,11
599618328182162816,4
599618328189849984,7
599618328197537024,21
599618328205224192,33
599618328212911360,38
599618328220598400,47
599618328228285568,45
599618328235972736,28
599618328243659776,14
599618328251346944,16
599618328259034112,21
599618328266721152,16
599618328274408320,21
599618328282095488,21
599618328289782528,16
599618328297469696,16
599618328305156736,14
599618328312843904,-38
599618328320531072,-164
599618328328218112,-217
599618328335905280,69
599618328343592448,664
599618328351279488,1062
599618328358966656,757
599618328366653824,54
599618328374340864,-219
599618328382028032,-90
599618328389715072,-50
599618328397402240,-59
599618328405089408,-11
599618328412776448,-11
599618328420463616,-31
599618328428150784,-4
599618328435837824,4
599618328443524992,-7
599618328451212160,2
599618328458899200,14
599618328466586368,14
599618328474273536,23
599618328481960576,28
599618328489647744,26
599618328497334784,35
599618328505021952,50
599618328512709120,54
599618328520396160,57
599618328528083328,71
599618328535770496,93
599618328543457536,105
599618328551144704,117
599618328558831872,133
599618328566518912,140
599618328574206080,148
599618328581893120,152
599618328589580288,148
599618328597267456,136
599618328604954496,112
599618328612641664,81
599618328620328832,50
599618328628015872,14
599618328635703040,-14
599618328643390208,-31
599618328651077248,-45
599618328658764416,-59
599618328666451456,-59
599618328674138624,-57
599618328681825792,-57
599618328689512832,-50
599618328697200006,-45
599618328704887552,-47
599618328712575104,-47
599618328720262656,-47
599618328727950208,-45
599618328735637760,-33
599618328743325312,-31
599618328751012736,-33
599618328758700288,-28
599618328766387840,-23
599618328774075392,-23
599618328781762944,-21
599618328789450496,-16
599618328797138048,-14
599618328804825600,-9
599618328812513152,0
599618328820200704,0
599618328827888128,-2
599618328835575680,2
599618328843263232,4
599618328850950784,2
599618328858638336,0
599618328866325888,7
599618328874013440,11
599618328881700992,11
599618328889388544,4
599618328897076096,4
599618328904763648,7
599618328912451072,9
599618328920138624,11
599618328927826176,14
599618328935513728,11
599618328943201280,11
599618328950888832,9
599618328958576384,11
599618328966263936,14
599618328973951488,14
599618328981639040,11
599618328989326592,14
599618328997014016,21
599618329004701568,16
599618329012389120,11
599618329020076672,11
599618329027764224,11
599618329035451776,16
599618329043139328,19
599618329050826880,19
599618329058514432,16
599618329066201984,16
599618329073889408,16
599618329081576960,19
599618329089264512,19
599618329096952064,16
599618329104639616,21
599618329112327168,21
599618329120014720,16
599618329127702272,19
599618329135389824,23
599618329143077376,19
599618329150764928,19
599618329158452352,19
599618329166139904,19
599618329173827456,21
599618329181515008,23
599618329189202560,19
599618329196890112,14
599618329204577664,14
599618329212265216,7
599618329219952768,2
599618329227640320,14
599618329235327872,33
599618329243015296,40
599618329250702848,47
599618329258390425,54
599618329266077696,47
599618329273764992,28
599618329281452160,21
599618329289139456,23
599618329296826752,26
599618329304514048,26
599618329312201216,23
599618329319888512,23
599618329327575808,26
599618329335263104,23
599618329342950272,4
599618329350637568,-85
599618329358324864,-217
599618329366012032,-133
599618329373699328,355
599618329381386624,964
599618329389073920,1060
599618329396761088,444
599618329404448384,-157
599618329412135680,-176
599618329419822976,-40
599618329427510144,-57
599618329435197440,-47
599618329442884736,-14
599618329450571904,-28
599618329458259200,-28
599618329465946496,-9
599618329473633792,-7
599618329481320960,-4
599618329489008256,2
599618329496695552,4
599618329504382848,9
599618329512070016,19
599618329519757312,21
599618329527444608,23
599618329535131776,33
599618329542819072,45
599618329550506368,50
599618329558193664,54
599618329565880832,66
599618329573568128,85
599618329581255424,100
599618329588942720,109
599618329596629888,124
599618329604317184,138
599618329612004480,143
599618329619691776,145
599618329627378944,138
599618329635066240,119
599618329642753536,93
599618329650440704,59
599618329658128000,26
599618329665815296,-4
599618329673502592,-28
599618329681189760,-45
599618329688877056,-54
599618329696564352,-57
599618329704251648,-64
599618329711938816,-66
599618329719626112,-57
599618329727313408,-54
599618329735000576,-59
599618329742687872,-57
599618329750375168,-50
599618329758062464,-42
599618329765749632,-38
599618329773436928,-35
599618329781124224,-33
599618329788811520,-28
599618329796498688,-26
599618329804185984,-28
599618329811873280,-23
599618329819560496,-19
599618329827247872,-16
599618329834935296,-14
599618329842622720,-9
599618329850310016,-7
599618329857997440,-7
599618329865684864,-4
599618329873372288,-2
599618329881059712,0
599618329888747136,2
599618329896434432,4
599618329904121856,4
599618329911809280,4
599618329919496704,2
599618329927184128,2
599618329934871424,4
599618329942558848,9
599618329950246272,7
599618329957933696,4
599618329965621120,4
599618329973308544,4
599618329980995840,4
599618329988683264,7
599618329996370688,7
599618330004058112,7
599618330011745536,11
599618330019432832,11
599618330027120256,11
599618330034807680,11
599618330042495104,11
599618330050182528,16
599618330057869952,16
599618330065557248,9
599618330073244672,9
599618330080932096,11
599618330088619520,9
599618330096306944,11
599618330103994240,16
599618330111681664,11
599618330119369088,9
599618330127056512,11
599618330134743936,14
599618330142431232,16
599618330150118656,14
599618330157806080,11
599618330165493504,14
599618330173180928,19
599618330180868352,14
599618330188555648,14
599618330196243072,16
599618330203930496,16
599618330211617920,16
599618330219305344,19
599618330226992640,21
599618330234680064,21
599618330242367488,19
599618330250054912,9
599618330257742336,2
599618330265429760,2
599618330273117056,21
599618330280804480,40
599618330288491904,47
599618330296179328,47
599618330303866752,45
599618330311554048,38
599618330319241472,26
599618330326928896,21
599618330334616320,23
599618330342303744,23
599618330349991168,26
599618330357678464,26
599618330365365888,28
599618330373053312,28
599618330380740737,19
599618330388427904,-59
599618330396115072,-198
599618330403802112,-186
599618330411489280,219
599618330419176448,864
599618330426863488,1136
599618330434550656,637
599618330442237696,-66
599618330449924864,-205
599618330457612032,-47
599618330465299072,-42
599618330472986240,-62
599618330480673408,-21
599618330488360448,-19
599618330496047616,-31
599618330503734784,-16
599618330511421824,-7
599618330519108992,-7
599618330526796160,2
599618330534483200,11
599618330542170368,11
599618330549857408,14
599618330557544576,19
599618330565231744,26
599618330572918784,31
599618330580605952,38
599618330588293120,52
599618330595980160,62
599618330603667328,71
599618330611354496,81
599618330619041536,93
599618330626728704,112
599618330634415744,128
599618330642102912,133
599618330649790080,140
599618330657477120,148
599618330665164288,140
599618330672851456,126
599618330680538496,105
599618330688225664,76
599618330695912832,42
599618330703599872,11
599618330711287040,-16
599618330718974208,-35
599618330726661248,-50
599618330734348416,-57
599618330742035456,-57
599618330749722624,-57
599618330757409792,-54
599618330765096832,-52
599618330772784000,-50
599618330780471168,-42
599618330788158208,-42
599618330795845376,-45
599618330803532544,-35
599618330811219584,-28
599618330818906752,-33
599618330826593792,-31
599618330834280960,-23
599618330841968128,-23
599618330849655168,-16
599618330857342336,-11
599618330865029504,-11
599618330872716544,-11
599618330880403712,-7
599618330888090880,-2
599618330895777920,0
599618330903465088,0
599618330911152128,2
599618330918839296,2
599618330926526464,0
599618330934213504,2
599618330941900634,7
599618330949588096,7
599618330957275520,7
599618330964963072,7
599618330972650496,7
599618330980337920,7
599618330988025472,9
599618330995712896,11
599618331003400448,11
599618331011087872,11
599618331018775296,11
599618331026462848,9
599618331034150272,11
599618331041837696,14
599618331049525248,14
599618331057212672,11
599618331064900096,14
599618331072587648,16
599618331080275072,19
599618331087962624,16
599618331095650048,14
599618331103337472,16
599618331111025024,16
599618331118712448,16
599618331126399872,16
599618331134087424,16
599618331141774848,14
599618331149462272,14
599618331157149824,19
599618331164837248,23
599618331172524672,21
599618331180212224,21
599618331187899648,23
599618331195587200,21
599618331203274624,19
599618331210962048,19
599618331218649600,19
599618331226337024,16
599618331234024448,23
599618331241712000,23
599618331249399424,16
599618331257086848,14
599618331264774400,19
599618331272461824,11
599618331280149376,2
599618331287836800,4
599618331295524224,23
599618331303211776,40
599618331310899200,50
599618331318586624,50
599618331326274176,45
599618331333961600,31
599618331341649024,19
599618331349336576,19
599618331357024000,23
599618331364711552,21
599618331372398976,21
599618331380086400,28
599618331387773952,28
599618331395461376,23
599618331403148800,14
599618331410836352,-50
599618331418523776,-191
599618331426211200,-207
599618331433898752,164
599618331441586176,816
599618331449273728,1163
599618331456961152,718
599618331464648576,-23
599618331472336128,-222
599618331480023552,-66
599618331487710976,-45
599618331495398528,-64
599618331503085966,-28
599618331510773120,-23
599618331518460288,-33
599618331526147456,-19
599618331533834752,-9
599618331541521920,-9
599618331549209088,-4
599618331556896256,2
599618331564583424,4
599618331572270592,9
599618331579957888,19
599618331587645056,28
599618331595332224,31
599618331603019392,35
599618331610706560,45
599618331618393856,57
599618331626081024,64
599618331633768192,74
599618331641455360,93
599618331649142528,107
599618331656829696,121
599618331664516992,131
599618331672204160,138
599618331679891328,140
599618331687578496,140
599618331695265664,128
599618331702952960,105
599618331710640128,78
599618331718327296,45
599618331726014464,11
599618331733701632,-19
599618331741388928,-35
599618331749076096,-45
599618331756763264,-54
599618331764450432,-59
599618331772137600,-57
599618331779824768,-57
599618331787512064,-57
599618331795199232,-50
599618331802886400,-42
599618331810573568,-42
599618331818260736,-40
599618331825948032,-33
599618331833635200,-33
599618331841322368,-33
599618331849009536,-31
599618331856696704,-23
599618331864383872,-21
599618331872071168,-21
599618331879758336,-16
599618331887445504,-14
599618331895132672,-14
599618331902819840,-9
599618331910507136,-4
599618331918194304,-4
599618331925881472,-2
599618331933568640,2
599618331941255808,0
599618331948942976,0
599618331956630272,2
599618331964317440,4
599618331972004608,4
599618331979691776,4
599618331987378944,0
599618331995066240,0
599618332002753408,9
599618332010440576,11
599618332018127744,7
599618332025814912,2
599618332033502080,4
599618332041189376,7
599618332048876544,7
599618332056563712,9
599618332064250946,9
599618332071938560,9
599618332079626112,9
599618332087313664,11
599618332095001216,11
599618332102688768,14
599618332110376320,14
599618332118063744,14
599618332125751296,14
599618332133438848,11
599618332141126400,11
599618332148813952,16
599618332156501504,16
599618332164189056,14
599618332171876608,14
599618332179564160,16
599618332187251712,16
599618332194939136,16
599618332202626688,19
599618332210314240,19
599618332218001792,19
599618332225689344,19
599618332233376896,19
599618332241064448,16
599618332248752000,21
599618332256439552,21
599618332264127104,19
599618332271814656,16
599618332279502080,9
599618332287189632,0
599618332294877184,2
599618332302564736,26
599618332310252288,42
599618332317939840,45
599618332325627392,50
599618332333314944,45
599618332341002496,28
599618332348690048,19
599618332356377600,23
599618332364065024,26
599618332371752576,26
599618332379440128,26
599618332387127680,26
599618332394815232,26
599618332402502784,31
599618332410190336,11
599618332417877888,-76
599618332425565440,-207
599618332433252992,-150
599618332440940416,315
599618332448627968,967
599618332456315520,1148
599618332464003072,554
599618332471690624,-117
599618332479378176,-188
599618332487065728,-40
599618332494753280,-50
599618332502440832,-54
599618332510128384,-19
599618332517815936,-28
599618332525503360,-31
599618332533190912,-11
599618332540878464,-4
599618332548566016,-7
599618332556253568,-2
599618332563941120,4
599618332571628672,9
599618332579316224,11
599618332587003776,21
599618332594691328,28
599618332602378880,33
599618332610066304,40
599618332617753856,50
599618332625441365,59
599618332633128576,71
599618332640815744,83
599618332648502784,97
599618332656189952,112
599618332663877120,126
599618332671564160,136
599618332679251328,143
599618332686938368,143
599618332694625536,138
599618332702312704,124
599618332709999744,105
599618332717686912,74
599618332725374080,40
599618332733061120,9
599618332740748288,-16
599618332748435456,-33
599618332756122496,-45
599618332763809664,-52
599618332771496832,-57
599618332779183872,-52
599618332786871040,-47
599618332794558080,-47
599618332802245248,-47
599618332809932416,-40
599618332817619456,-33
599618332825306624,-33
599618332832993792,-31
599618332840680832,-26
599618332848368000,-23
599618332856055168,-21
599618332863742208,-16
599618332871429376,-14
599618332879116416,-14
599618332886803584,-9
599618332894490752,-7
599618332902177792,-4
599618332909864960,-2
599618332917552128,2
599618332925239168,4
599618332932926336,7
599618332940613504,7
599618332948300544,9
599618332955987712,9
599618332963674880,9
599618332971361920,7
599618332979049088,11
599618332986736128,11
599618332994423296,9
599618333002110464,14
599618333009797504,14
599618333017484672,11
599618333025171840,11
599618333032858880,16
599618333040546048,16
599618333048233216,14
599618333055920256,14
599618333063607424,19
599618333071294464,19
599618333078981632,14
599618333086668800,14
599618333094355840,16
599618333102043008,19
599618333109730176,19
599618333117417216,19
599618333125104384,21
599618333132791552,23
599618333140478592,21
599618333148165760,21
599618333155852800,21
599618333163539968,21
599618333171227136,23
599618333178914176,26
599618333186601262,21
599618333194288512,21
599618333201975808,26
599618333209663232,23
599618333217350528,23
599618333225037824,23
599618333232725120,23
599618333240412544,23
599618333248099840,23
599618333255787136,26
599618333263474432,23
599618333271161856,21
599618333278849152,16
599618333286536448,4
599618333294223872,9
599618333301911168,31
599618333309598464,45
599618333317285760,52
599618333324973184,57
599618333332660480,52
599618333340347776,33
599618333348035072,23
599618333355722496,31
599618333363409792,31
599618333371097088,26
599618333378784512,31
599618333386471808,33
599618333394159104,28
599618333401846400,31
599618333409533824,19
599618333417221120,-64
599618333424908416,-203
599618333432595712,-160
599618333440283136,291
599618333447970432,945
599618333455657728,1153
599618333463345152,570
599618333471032448,-126
599618333478719744,-214
599618333486407040,-54
599618333494094464,-57
599618333501781760,-62
599618333509469056,-21
599618333517156352,-23
599618333524843776,-33
599618333532531072,-16
599618333540218368,-9
599618333547905792,-9
599618333555593088,-2
599618333563280384,4
599618333570967680,7
599618333578655104,9
599618333586342400,19
599618333594029696,28
599618333601716992,33
599618333609404416,40
599618333617091712,50
599618333624779008,62
599618333632466432,71
599618333640153728,83
599618333647841024,100
599618333655528320,114
599618333663215744,126
599618333670903040,138
599618333678590336,145
599618333686277632,143
599618333693965056,138
599618333701652352,126
599618333709339648,105
599618333717027072,74
599618333724714368,42
599618333732401664,9
599618333740088960,-21
599618333747776420,-38
599618333755463680,-47
599618333763150976,-57
599618333770838400,-59
599618333778525696,-57
599618333786212992,-54
599618333793900288,-57
599618333801587712,-50
599618333809275008,-45
599618333816962304,-45
599618333824649600,-40
599618333832337024,-35
599618333840024320,-33
599618333847711616,-31
599618333855399040,-28
599618333863086336,-23
599618333870773632,-21
599618333878460928,-16
599618333886148352,-14
599618333893835648,-11
599618333901522944,-9
599618333909210240,-4
599618333916897664,-2
599618333924584960,-2
599618333932272256,0
599618333939959680,2
599618333947646976,2
599618333955334272,2
599618333963021568,2
599618333970708992,2
599618333978396288,2
599618333986083584,0
599618333993770880,2
599618334001458304,4
599618334009145600,4
599618334016832896,2
599618334024520320,7
599618334032207616,7
599618334039894912,7
599618334047582208,7
599618334055269632,9
599618334062956928,9
599618334070644224,9
599618334078331520,11
599618334086018944,11
599618334093706240,11
599618334101393536,9
599618334109080960,11
599618334116768256,11
599618334124455552,11
599618334132142848,14
599618334139830272,14
599618334147517568,14
599618334155204864,16
599618334162892160,16
599618334170579584,16
599618334178266880,19
599618334185954176,21
599618334193641600,21
599618334201328896,21
599618334209016192,19
599618334216703488,21
599618334224390912,23
599618334232078208,23
599618334239765504,21
599618334247452800,21
599618334255140224,16
599618334262827520,7
599618334270514816,4
599618334278202240,11
599618334285889536,31
599618334293576832,45
599618334301264128,52
599618334308951574,54
599618334316638720,42
599618334324325888,23
599618334332012928,23
599618334339700096,31
599618334347387264,28
599618334355074304,26
599618334362761472,26
599618334370448512,26
599618334378135680,28
599618334385822848,31
599618334393509888,-2
599618334401197056,-114
599618334408884224,-217
599618334416571264,-42
599618334424258432,527
599618334431945600,1103
599618334439632640,1007
599618334447319808,246
599618334455006976,-257
599618334462694016,-167
599618334470381184,-50
599618334478068224,-66
599618334485755392,-31
599618334493442560,-7
599618334501129600,-23
599618334508816768,-16
599618334516503936,2
599618334524190976,2
599618334531878144,2
599618334539565312,11
599618334547252352,16
599618334554939520,21
599618334562626560,26
599618334570313728,31
599618334578000896,40
599618334585687936,50
599618334593375104,54
599618334601062272,64
599618334608749312,76
599618334616436480,85
599618334624123648,97
599618334631810688,114
599618334639497856,128
599618334647185024,140
599618334654872064,150
599618334662559232,155
599618334670246272,150
599618334677933440,140
599618334685620608,126
599618334693307648,100
599618334700994816,66
599618334708681984,31
599618334716369024,0
599618334724056192,-23
599618334731743360,-38
599618334739430400,-47
599618334747117568,-57
599618334754804608,-59
599618334762491776,-54
599618334770178944,-52
599618334777865984,-50
599618334785553152,-47
599618334793240320,-42
599618334800927360,-38
599618334808614528,-38
599618334816301696,-35
599618334823988736,-28
599618334831675904,-26
599618334839362944,-23
599618334847050112,-19
599618334854737280,-16
599618334862424320,-11
599618334870111471,-9
599618334877799040,-7
599618334885486592,-4
599618334893174144,-2
599618334900861696,4
599618334908549248,2
599618334916236800,2
599618334923924224,4
599618334931611776,7
599618334939299328,4
599618334946986880,4
599618334954674432,4
599618334962361984,4
599618334970049536,4
599618334977737088,2
599618334985424640,2
599618334993112192,4
599618335000799616,7
599618335008487168,7
599618335016174720,7
599618335023862272,7
599618335031549824,9
599618335039237376,7
599618335046924928,7
599618335054612480,9
599618335062300032,9
599618335069987584,7
599618335077675136,9
599618335085362560,11
599618335093050112,14
599618335100737664,14
599618335108425216,11
599618335116112768,11
599618335123800320,14
599618335131487872,14
599618335139175424,14
599618335146862976,16
599618335154550528,14
599618335162238080,16
599618335169925504,16
599618335177613056,16
599618335185300608,19
599618335192988160,16
599618335200675712,16
599618335208363264,14
599618335216050816,9
599618335223738368,0
599618335231425920,0
599618335239113472,16
599618335246800896,38
599618335254488448,47
599618335262176000,50
599618335269863552,45
599618335277551104,28
599618335285238656,14
599618335292926208,19
599618335300613760,23
599618335308301312,21
599618335315988864,21
599618335323676416,21
599618335331363840,23
599618335339051392,23
599618335346738944,16
599618335354426496,-45
599618335362114048,-176
599618335369801600,-193
599618335377489152,169
599618335385176704,819
599618335392864256,1163
599618335400551808,687
599618335408239232,-88
599618335415926784,-281
599618335423614336,-109
599618335431301886,-74
599618335438989056,-59
599618335446676224,-14
599618335454363392,-23
599618335462050688,-28
599618335469737856,-9
599618335477425024,-4
599618335485112192,-4
599618335492799360,4
599618335500486528,11
599618335508173824,14
599618335515860992,16
599618335523548160,23
599618335531235328,31
599618335538922496,40
599618335546609792,50
599618335554296960,57
599618335561984128,66
599618335569671296,78
599618335577358464,93
599618335585045760,105
599618335592732928,119
599618335600420096,133
599618335608107264,140
599618335615794432,145
599618335623481600,145
599618335631168896,143
599618335638856064,128
599618335646543232,109
599618335654230400,83
599618335661917568,47
599618335669604864,9
599618335677292032,-14
599618335684979200,-33
599618335692666368,-47
599618335700353536,-57
599618335708040704,-59
599618335715728000,-62
599618335723415168,-59
599618335731102336,-57
599618335738789504,-54
599618335746476672,-50
599618335754163968,-45
599618335761851136,-42
599618335769538304,-38
599618335777225472,-35
599618335784912640,-33
599618335792599808,-28
599618335800287104,-23
599618335807974272,-21
599618335815661440,-19
599618335823348608,-14
599618335831035776,-14
599618335838723072,-11
599618335846410240,-7
599618335854097408,-4
599618335861784576,-2
599618335869471744,-2
599618335877159040,0
599618335884846208,0
599618335892533376,-2
599618335900220544,0
599618335907907712,0
599618335915594880,-2
599618335923282176,0
599618335930969344,0
599618335938656512,2
599618335946343680,2
599618335954030848,2
599618335961718144,0
599618335969405312,2
599618335977092480,4
599618335984779648,4
599618335992466874,4
599618336000154240,4
599618336007841664,7
599618336015529216,7
599618336023216640,7
599618336030904064,9
599618336038591616,11
599618336046279040,9
599618336053966592,9
599618336061654016,9
599618336069341440,9
599618336077028992,14
599618336084716416,14
599618336092403840,11
599618336100091392,11
599618336107778816,16
599618336115466240,16
599618336123153792,14
599618336130841216,14
599618336138528768,11
599618336146216192,7
599618336153903616,0
599618336161591168,-4
599618336169278592,7
599618336176966016,31
599618336184653568,45
599618336192340992,50
599618336200028416,52
599618336207715968,35
599618336215403392,16
599618336223090816,19
599618336230778368,23
599618336238465792,19
599618336246153344,19
599618336253840768,21
599618336261528192,21
599618336269215744,23
599618336276903168,21
599618336284590592,-9
599618336292278144,-121
599618336299965568,-214
599618336307652992,-16
599618336315340544,554
599618336323027968,1096
599618336330715520,948
599618336338402944,167
599618336346090368,-305
599618336353777920,-191
599618336361465344,-76
599618336369152768,-69
599618336376840320,-21
599618336384527744,-11
599618336392215168,-26
599618336399902720,-9
599618336407590144,0
599618336415277696,-2
599618336422965120,7
599618336430652544,14
599618336438340096,16
599618336446027520,23
599618336453714944,31
599618336461402496,38
599618336469089920,45
599618336476777344,54
599618336484464896,62
599618336492152320,71
599618336499839744,83
599618336507527296,95
599618336515214720,105
599618336522902272,119
599618336530589696,133
599618336538277120,143
599618336545964672,150
599618336553652202,150
599618336561339392,148
599618336569026560,138
599618336576713600,121
599618336584400768,95
599618336592087936,64
599618336599774976,31
599618336607462144,-2
599618336615149184,-26
599618336622836352,-38
599618336630523520,-47
599618336638210560,-57
599618336645897728,-59
599618336653584896,-57
599618336661271936,-57
599618336668959104,-50
599618336676646272,-47
599618336684333312,-47
599618336692020480,-42
599618336699707648,-33
599618336707394688,-31
599618336715081856,-31
599618336722768896,-26
599618336730456064,-23
599618336738143232,-19
599618336745830272,-16
599618336753517440,-11
599618336761204608,-9
599618336768891648,-7
599618336776578816,-4
599618336784265984,-2
599618336791953024,-2
599618336799640192,0
599618336807327232,0
599618336815014400,2
599618336822701568,0
599618336830388608,0
599618336838075776,0
599618336845762944,0
599618336853449984,2
599618336861137152,4
599618336868824320,2
599618336876511360,0
599618336884198528,2
599618336891885696,4
599618336899572736,7
599618336907259904,4
599618336914946944,4
599618336922634112,9
599618336930321280,11
599618336938008320,7
599618336945695488,4
599618336953382656,9
599618336961069696,11
599618336968756864,9
599618336976444032,11
599618336984131072,11
599618336991818240,11
599618336999505280,14
599618337007192448,16
599618337014879616,16
599618337022566656,16
599618337030253824,16
599618337037940992,19
599618337045628032,14
599618337053315200,9
599618337061002368,2
599618337068689408,-2
599618337076376576,4
599618337084063616,26
599618337091750784,47
599618337099437952,57
599618337107124992,54
599618337114812099,40
599618337122499328,21
599618337130186496,16
599618337137873536,23
599618337145560704,21
599618337153247872,16
599618337160934912,19
599618337168622080,21
599618337176309120,21
599618337183996288,21
599618337191683456,-7
599618337199370496,-117
599618337207057664,-212
599618337214744832,-19
599618337222431872,549
599618337230119040,1084
599618337237806208,931
599618337245493248,145
599618337253180416,-322
599618337260867584,-205
599618337268554624,-85
599618337276241792,-71
599618337283928832,-14
599618337291616000,-4
599618337299303168,-26
599618337306990208,-7
599618337314677376,9
599618337322364544,2
599618337330051584,7
599618337337738752,21
599618337345425920,23
599618337353112960,26
599618337360800128,33
599618337368487168,42
599618337376174336,50
599618337383861504,57
599618337391548544,66
599618337399235712,76
599618337406922880,85
599618337414609920,97
599618337422297088,112
599618337429984256,124
599618337437671296,136
599618337445358464,148
599618337453045632,157
599618337460732672,160
599618337468419840,150
599618337476106880,138
599618337483794048,124
599618337491481216,102
599618337499168256,66
599618337506855424,31
599618337514542592,0
599618337522229632,-23
599618337529916800,-42
599618337537603968,-54
599618337545291008,-59
599618337552978176,-59
599618337560665216,-57
599618337568352384,-57
599618337576039552,-57
599618337583726592,-54
599618337591413760,-50
599618337599100928,-45
599618337606787968,-40
599618337614475136,-35
599618337622162304,-33
599618337629849344,-28
599618337637536512,-23
599618337645223552,-21
599618337652910720,-19
599618337660597888,-11
599618337668284928,-11
599618337675971996,-14
599618337683659392,-11
599618337691346816,-7
599618337699034368,-4
599618337706721792,-4
599618337714409216,-4
599618337722096768,-2
599618337729784192,-2
599618337737471744,-4
599618337745159168,-4
599618337752846592,-4
599618337760534144,-2
599618337768221568,0
599618337775908992,-4
599618337783596544,-4
599618337791283968,-2
599618337798971392,-2
599618337806658944,-2
599618337814346368,0
599618337822033920,-2
599618337829721344,0
599618337837408768,2
599618337845096320,4
599618337852783744,2
599618337860471168,4
599618337868158720,7
599618337875846144,7
599618337883533568,4
599618337891221120,4
599618337898908544,7
599618337906595968,7
599618337914283520,4
599618337921970944,0
599618337929658496,-7
599618337937345920,-9
599618337945033344,2
599618337952720896,23
599618337960408320,38
599618337968095744,42
599618337975783296,38
599618337983470720,21
599618337991158144,4
599618337998845696,7
599618338006533120,9
599618338014220672,9
599618338021908096,11
599618338029595520,14
599618338037283072,16
599618338044970496,14
599618338052657920,9
599618338060345472,-31
599618338068032896,-148
599618338075720320,-222
599618338083407872,31
599618338091095296,644
599618338098782848,1124
599618338106470272,807
599618338114157696,-47
599618338121845248,-396
599618338129532672,-195
599618338137220096,-105
599618338144907648,-83
599618338152595072,-7
599618338160282496,-7
599618338167970048,-33
599618338175657472,-9
599618338183345024,4
599618338191032448,0
599618338198719872,7
599618338206407424,14
599618338214094848,19
599618338221782272,28
599618338229469824,35
599618338237157328,40
599618338244844544,45
599618338252531712,57
599618338260218880,69
599618338267906176,78
599618338275593344,88
599618338283280512,105
599618338290967680,121
599618338298654848,133
599618338306342016,143
599618338314029312,152
599618338321716480,160
599618338329403648,160
599618338337090816,155
599618338344777984,143
599618338352465280,128
599618338360152448,100
599618338367839616,59
599618338375526784,21
599618338383213952,-11
599618338390901120,-40
599618338398588416,-57
599618338406275584,-66
599618338413962752,-69
599618338421649920,-71
599618338429337088,-69
599618338437024384,-64
599618338444711552,-62
599618338452398720,-57
599618338460085888,-52
599618338467773056,-47
599618338475460352,-45
599618338483147520,-42
599618338490834688,-40
599618338498521856,-35
599618338506209024,-33
599618338513896192,-28
599618338521583488,-23
599618338529270656,-19
599618338536957824,-16
599618338544644992,-14
599618338552332160,-14
599618338560019456,-11
599618338567706624,-11
599618338575393792,-14
599618338583080960,-9
599618338590768128,-9
599618338598455296,-7
599618338606142592,-7
599618338613829760,-7
599618338621516928,-9
599618338629204096,-11
599618338636891264,-7
599618338644578560,-2
599618338652265728,-4
599618338659952896,-7
599618338667640064,-7
599618338675327232,-4
599618338683014400,-2
599618338690701696,0
599618338698388864,0
599618338706076032,0
599618338713763200,-4
599618338721450368,-7
599618338729137664,-11
599618338736824832,-19
599618338744512000,-9
599618338752199168,14
599618338759886336,28
599618338767573632,31
599618338775260800,35
599618338782947968,33
599618338790635136,14
599618338798322312,0
599618338806009472,0
599618338813696640,4
599618338821383680,7
599618338829070848,7
599618338836758016,9
599618338844445056,9
599618338852132224,4
599618338859819264,4
599618338867506432,-40
599618338875193600,-171
599618338882880640,-231
599618338890567808,74
599618338898254976,716
599618338905942016,1136
599618338913629184,709
599618338921316352,-157
599618338929003392,-406
599618338936690560,-171
599618338944377728,-112
599618338952064768,-88
599618338959751936,2
599618338967438976,-7
599618338975126144,-31
599618338982813312,4
599618338990500352,14
599618338998187520,0
599618339005874688,14
599618339013561728,26
599618339021248896,26
599618339028936064,31
599618339036623104,40
599618339044310272,50
599618339051997312,54
599618339059684480,64
599618339067371648,81
599618339075058688,93
599618339082745856,100
599618339090433024,114
599618339098120064,128
599618339105807232,145
599618339113494400,162
599618339121181440,171
599618339128868608,176
599618339136555776,176
599618339144242816,167
599618339151929984,150
599618339159617024,128
599618339167304192,97
599618339174991360,52
599618339182678400,11
599618339190365568,-16
599618339198052736,-42
599618339205739776,-66
599618339213426944,-74
599618339221114112,-76
599618339228801152,-78
599618339236488320,-76
599618339244175360,-71
599618339251862528,-62
599618339259549696,-59
599618339267236736,-62
599618339274923904,-54
599618339282611072,-50
599618339290298112,-52
599618339297985280,-47
599618339305672448,-38
599618339313359488,-33
599618339321046656,-28
599618339328733696,-28
599618339336420864,-26
599618339344108032,-21
599618339351795072,-19
599618339359482209,-19
599618339367169536,-14
599618339374856832,-14
599618339382544000,-14
599618339390231296,-11
599618339397918592,-9
599618339405605888,-11
599618339413293056,-14
599618339420980352,-11
599618339428667648,-7
599618339436354944,-7
599618339444042112,-16
599618339451729408,-21
599618339459416704,-19
599618339467103872,-23
599618339474791168,-31
599618339482478464,-16
599618339490165760,9
599618339497852928,19
599618339505540224,16
599618339513227520,16
599618339520914816,9
599618339528601984,0
599618339536289280,-4
599618339543976576,-2
599618339551663744,2
599618339559351040,2
599618339567038336,-2
599618339574725632,-7
599618339582412800,0
599618339590100096,4
599618339597787392,-14
599618339605474688,-100
599618339613161856,-234
599618339620849152,-186
599618339628536448,281
599618339636223616,945
599618339643910912,1084
599618339651598208,360
599618339659285504,-353
599618339666972672,-322
599618339674659968,-117
599618339682347264,-114
599618339690034560,-57
599618339697721728,4
599618339705409024,-31
599618339713096320,-33
599618339720783616,0
599618339728470784,0
599618339736158080,0
599618339743845376,11
599618339751532544,11
599618339759219840,14
599618339766907136,28
599618339774594432,40
599618339782281600,40
599618339789968896,45
599618339797656192,62
599618339805343488,76
599618339813030656,85
599618339820717952,100
599618339828405248,117
599618339836092416,133
599618339843779712,148
599618339851467008,160
599618339859154304,169
599618339866841472,174
599618339874528768,164
599618339882216064,152
599618339889903360,140
599618339897590528,109
599618339905277824,62
599618339912965120,9
599618339920652280,-28
599618339928339712,-47
599618339936027136,-69
599618339943714560,-85
599618339951401856,-88
599618339959089280,-88
599618339966776704,-85
599618339974464128,-83
599618339982151552,-81
599618339989838976,-83
599618339997526272,-76
599618340005213696,-66
599618340012901120,-69
599618340020588544,-69
599618340028275968,-59
599618340035963264,-54
599618340043650688,-47
599618340051338112,-40
599618340059025536,-38
599618340066712960,-35
599618340074400384,-28
599618340082087680,-23
599618340089775104,-21
599618340097462528,-19
599618340105149952,-19
599618340112837376,-21
599618340120524672,-16
599618340128212096,-14
599618340135899520,-21
599618340143586944,-19
599618340151274368,-11
599618340158961792,-19
599618340166649088,-23
599618340174336512,-21
599618340182023936,-23
599618340189711360,-31
599618340197398784,-31
599618340205086080,-11
599618340212773504,9
599618340220460928,16
599618340228148352,14
599618340235835776,4
599618340243523072,-7
599618340251210496,-11
599618340258897920,-7
599618340266585344,-4
599618340274272768,-7
599618340281960192,-9
599618340289647488,-7
599618340297334912,0
599618340305022336,0
599618340312709760,-11
599618340320397184,-57
599618340328084480,-186
599618340335771904,-255
599618340343459328,45
599618340351146752,706
599618340358834176,1141
599618340366521600,716
599618340374208896,-131
599618340381896320,-372
599618340389583744,-160
599618340397271168,-107
599618340404958592,-90
599618340412645888,-16
599618340420333312,-21
599618340428020736,-38
599618340435708160,-14
599618340443395584,-9
599618340451083008,-11
599618340458770304,0
599618340466457728,9
599618340474145152,11
599618340481832521,14
599618340489519744,23
599618340497206912,33
599618340504893952,42
599618340512581120,47
599618340520268288,54
599618340527955328,76
599618340535642496,95
599618340543329536,105
599618340551016704,121
599618340558703872,136
599618340566390912,145
599618340574078080,162
599618340581765248,176
599618340589452288,176
599618340597139456,162
599618340604826624,143
599618340612513664,114
599618340620200832,71
599618340627888000,21
599618340635575040,-16
599618340643262208,-50
599618340650949248,-71
599618340658636416,-76
599618340666323584,-85
599618340674010624,-90
599618340681697792,-85
599618340689384960,-85
599618340697072000,-85
599618340704759168,-81
599618340712446336,-76
599618340720133376,-69
599618340727820544,-71
599618340735507584,-74
599618340743194752,-62
599618340750881920,-57
599618340758568960,-54
599618340766256128,-45
599618340773943296,-38
599618340781630336,-35
599618340789317504,-35
599618340797004672,-33
599618340804691712,-28
599618340812378880,-21
599618340820066048,-19
599618340827753088,-16
599618340835440256,-21
599618340843127296,-23
599618340850814464,-16
599618340858501632,-19
599618340866188672,-21
599618340873875840,-19
599618340881563008,-14
599618340889250048,-19
599618340896937216,-21
599618340904624384,-23
599618340912311424,-26
599618340919998592,-38
599618340927685632,-31
599618340935372800,-4
599618340943059968,9
599618340950747008,19
599618340958434176,19
599618340966121344,2
599618340973808384,-9
599618340981495552,-4
599618340989182720,-7
599618340996869760,-7
599618341004556928,0
599618341012243968,-2
599618341019931136,-9
599618341027618304,-2
599618341035305344,2
599618341042992418,-2
599618341050679552,-47
599618341058366720,-169
599618341066053760,-257
599618341073740928,-16
599618341081428096,611
599618341089115136,1103
599618341096802304,800
599618341104489344,-28
599618341112176512,-372
599618341119863680,-183
599618341127550720,-97
599618341135237888,-93
599618341142925056,-23
599618341150612096,-16
599618341158299264,-38
599618341165986432,-19
599618341173673472,-9
599618341181360640,-9
599618341189047808,-2
599618341196734848,2
599618341204422016,7
599618341212109056,11
599618341219796224,21
599618341227483392,31
599618341235170432,35
599618341242857600,42
599618341250544768,62
599618341258231808,69
599618341265918976,71
599618341273606144,95
599618341281293184,121
599618341288980352,128
599618341296667392,143
599618341304354560,164
599618341312041728,167
599618341319728768,162
599618341327415936,155
599618341335103104,143
599618341342790144,114
599618341350477312,74
599618341358164480,33
599618341365851520,-11
599618341373538688,-45
599618341381225856,-59
599618341388912896,-76
599618341396600064,-90
599618341404287104,-88
599618341411974272,-88
599618341419661440,-88
599618341427348480,-78
599618341435035648,-74
599618341442722816,-74
599618341450409856,-64
599618341458097024,-64
599618341465784192,-69
599618341473471232,-62
599618341481158400,-54
599618341488845440,-54
599618341496532608,-50
599618341504219776,-38
599618341511906816,-33
599618341519593984,-31
599618341527281152,-26
599618341534968192,-26
599618341542655360,-26
599618341550342528,-21
599618341558029568,-16
599618341565716736,-19
599618341573403776,-16
599618341581090944,-16
599618341588778112,-14
599618341596465152,-9
599618341604152315,-9
599618341611840256,-14
599618341619528192,-14
599618341627216128,-11
599618341634904192,-11
599618341642592128,-11
599618341650280064,-9
599618341657968000,-16
599618341665655936,-21
599618341673343872,-26
599618341681031936,-26
599618341688719872,-7
599618341696407808,9
599618341704095744,19
599618341711783680,33
599618341719471616,26
599618341727159680,2
599618341734847616,-2
599618341742535552,2
599618341750223488,2
599618341757911424,0
599618341765599360,4
599618341773287424,9
599618341780975360,9
599618341788663296,7
599618341796351232,4
599618341804039168,-4
599618341811727104,-88
599618341819415168,-234
599618341827103104,-186
599618341834791040,281
599618341842478976,921
599618341850166912,1060
599618341857854976,406
599618341865542912,-265
599618341873230848,-272
599618341880918784,-88
599618341888606720,-81
599618341896294656,-50
599618341903982720,-7
599618341911670656,-23
599618341919358592,-21
599618341927046528,-2
599618341934734464,-7
599618341942422400,-4
599618341950110464,11
599618341957798400,16
599618341965486336,11
599618341973174272,19
599618341980862208,31
599618341988550144,35
599618341996238208,42
599618342003926144,57
599618342011614080,66
599618342019302016,74
599618342026989952,90
599618342034677888,112
599618342042365952,128
599618342050053888,143
599618342057741824,157
599618342065429760,160
599618342073117696,160
599618342080805632,164
599618342088493696,157
599618342096181632,136
599618342103869568,97
599618342111557504,59
599618342119245440,23
599618342126933504,-21
599618342134621440,-54
599618342142309376,-64
599618342149997312,-71
599618342157685248,-81
599618342165373250,-74
599618342173059712,-69
599618342180746112,-76
599618342188432384,-74
599618342196118784,-66
599618342203805184,-62
599618342211491456,-59
599618342219177856,-57
599618342226864256,-57
599618342234550528,-50
599618342242236928,-42
599618342249923328,-42
599618342257609600,-35
599618342265296000,-33
599618342272982272,-35
599618342280668672,-26
599618342288355072,-16
599618342296041344,-21
599618342303727744,-23
599618342311414144,-9
599618342319100416,-4
599618342326786816,-9
599618342334473216,-9
599618342342159488,-7
599618342349845888,-9
599618342357532288,-7
599618342365218560,-7
599618342372904960,-4
599618342380591360,0
599618342388277632,-4
599618342395964032,-7
599618342403650432,0
599618342411336704,4
599618342419023104,7
599618342426709504,-2
599618342434395776,0
599618342442082176,4
599618342449768448,2
599618342457454848,2
599618342465141248,4
599618342472827520,7
599618342480513920,2
599618342488200320,-21
599618342495886592,-19
599618342503572992,14
599618342511259392,31
599618342518945664,28
599618342526632064,42
599618342534318464,47
599618342542004736,16
599618342549691136,0
599618342557377536,16
599618342565063808,14
599618342572750208,7
599618342580436608,11
599618342588122880,19
599618342595809280,11
599618342603495680,9
599618342611181952,19
599618342618868352,16
599618342626554624,-33
599618342634241024,-157
599618342641927424,-238
599618342649613696,7
599618342657300096,613
599618342664986496,1079
599618342672672768,790
599618342680359168,21
599618342688045568,-305
599618342695731840,-145
599618342703418240,-59
599618342711104640,-59
599618342718790912,-14
599618342726477200,-9
599618342734164608,-26
599618342741852032,-9
599618342749539584,7
599618342757227008,4
599618342764914432,2
599618342772601984,11
599618342780289408,23
599618342787976960,23
599618342795664384,26
599618342803351808,38
599618342811039360,47
599618342818726784,47
599618342826414208,57
599618342834101760,76
599618342841789184,90
599618342849476608,97
599618342857164160,107
599618342864851584,126
599618342872539136,148
599618342880226560,157
599618342887913984,164
599618342895601536,171
599618342903288960,164
599618342910976384,145
599618342918663936,121
599618342926351360,88
599618342934038784,47
599618342941726336,0
599618342949413760,-28
599618342957101184,-42
599618342964788736,-62
599618342972476160,-71
599618342980163712,-74
599618342987851136,-78
599618342995538560,-76
599618343003226112,-62
599618343010913536,-59
599618343018600960,-64
599618343026288512,-59
599618343033975936,-52
599618343041663360,-54
599618343049350912,-50
599618343057038336,-42
599618343064725888,-45
