599617043088536064,-74
599617043096228352,-54
599617043103920640,76
599617043111612928,284
599617043119305344,451
599617043126997632,589
599617043134689920,747
599617043142382208,898
599617043150074496,1022
599617043157766784,1136
599617043165459200,1251
599617043173151488,1361
599617043180843776,1466
599617043188536064,1559
599617043196228352,1643
599617043203920640,1726
599617043211612928,1810
599617043219305344,1884
599617043226997632,1941
599617043234689920,1996
599617043242382208,2061
599617043250074496,2130
599617043257766784,2185
599617043265459200,2235
599617043273151488,2281
599617043280843776,2312
599617043288536064,2343
599617043296228352,2386
599617043303920640,2438
599617043311612928,2486
599617043319305344,2524
599617043326997632,2558
599617043334689920,2586
599617043342382208,2593
599617043350074496,2603
599617043357766784,2627
599617043365459200,2644
599617043373151488,2653
599617043380843776,2670
599617043388536064,2687
599617043396228352,2706
599617043403920640,2708
599617043411612928,2658
599617043419305344,2543
599617043426997632,2512
599617043434689920,2813
599617043442382208,3401
599617043450074496,3726
599617043457766784,3241
599617043465459200,2448
599617043473151488,2309
599617043480843776,2577
599617043488536064,2641
599617043496228352,2656
599617043503920640,2710
599617043511612928,2696
599617043519305344,2679
599617043526997632,2691
599617043534689920,2682
599617043542382208,2672
599617043550074496,2672
599617043557766784,2663
599617043565459200,2656
599617043573151488,2651
599617043580843776,2644
599617043588536064,2636
599617043596228352,2634
599617043603920640,2632
599617043611612928,2624
599617043619305344,2617
599617043626997632,2613
599617043634689920,2613
599617043642382231,2613
599617043650068864,2603
599617043657755520,2593
599617043665442304,2581
599617043673128960,2558
599617043680815616,2534
599617043688502400,2510
599617043696189056,2476
599617043703875840,2429
599617043711562496,2374
599617043719249152,2319
599617043726935936,2271
599617043734622592,2226
599617043742309248,2190
599617043749996032,2173
599617043757682688,2147
599617043765369472,2113
599617043773056128,2097
599617043780742784,2087
599617043788429568,2068
599617043796116224,2051
599617043803802880,2042
599617043811489664,2027
599617043819176320,2011
599617043826863104,1996
599617043834549760,1982
599617043842236416,1972
599617043849923200,1958
599617043857609856,1939
599617043865296512,1925
599617043872983296,1913
599617043880669952,1894
599617043888356736,1872
599617043896043392,1860
599617043903730048,1846
599617043911416832,1822
599617043919103488,1798
599617043926790144,1784
599617043934476928,1769
599617043942163584,1746
599617043949850368,1726
599617043957537024,1712
599617043965223680,1698
599617043972910464,1681
599617043980597120,1664
599617043988283776,1648
599617043995970560,1631
599617044003657216,1614
599617044011344000,1597
599617044019030656,1585
599617044026717312,1569
599617044034404096,1545
599617044042090752,1521
599617044049777408,1502
599617044057464192,1478
599617044065150848,1459
599617044072837632,1466
599617044080524288,1473
599617044088210944,1461
599617044095897728,1456
599617044103584384,1442
599617044111271040,1411
599617044118957824,1385
599617044126644480,1375
599617044134331264,1361
599617044142017920,1347
599617044149704576,1332
599617044157391360,1318
599617044165078016,1308
599617044172764672,1294
599617044180451456,1232
599617044188138112,1091
599617044195824896,1024
599617044203511610,1296
599617044211198208,1879
599617044218884864,2226
599617044226571648,1777
599617044234258304,991
599617044241944960,802
599617044249631744,1022
599617044257318400,1093
599617044265005184,1089
599617044272691840,1110
599617044280378496,1093
599617044288065280,1081
599617044295751936,1086
599617044303438592,1077
599617044311125376,1062
599617044318812032,1060
599617044326498816,1055
599617044334185472,1046
599617044341872128,1041
599617044349558912,1036
599617044357245568,1029
599617044364932224,1024
599617044372619008,1027
599617044380305664,1027
599617044387992448,1022
599617044395679104,1022
599617044403365760,1024
599617044411052544,1029
599617044418739200,1027
599617044426425856,1017
599617044434112640,1012
599617044441799296,1005
599617044449486080,988
599617044457172736,967
599617044464859392,941
599617044472546176,905
599617044480232832,859
599617044487919488,814
599617044495606272,778
599617044503292928,752
599617044510979712,728
599617044518666368,714
599617044526353024,699
599617044534039808,690
599617044541726464,685
599617044549413120,675
599617044557099904,668
599617044564786560,666
599617044572473344,664
599617044580160000,659
599617044587846656,656
599617044595533440,652
599617044603220096,647
599617044610906752,654
599617044618593536,664
599617044626280192,647
599617044633966976,628
599617044641653632,630
599617044649340288,630
599617044657027072,623
599617044664713728,611
599617044672400384,597
599617044680087168,592
599617044687773824,587
599617044695460608,578
599617044703147264,570
599617044710833920,568
599617044718520704,561
599617044726207360,551
599617044733894016,551
599617044741580800,556
599617044749267456,549
599617044756954240,527
599617044764640989,520
599617044772328192,520
599617044780015360,513
599617044787702400,506
599617044795389568,503
599617044803076736,496
599617044810763776,489
599617044818450944,482
599617044826137984,480
599617044833825152,475
599617044841512320,468
599617044849199360,456
599617044856886528,449
599617044864573696,437
599617044872260736,422
599617044879947904,413
599617044887635072,422
599617044895322112,441
599617044903009280,451
599617044910696448,451
599617044918383488,449
599617044926070656,427
599617044933757696,403
599617044941444864,401
599617044949132032,403
599617044956819072,394
599617044964506240,386
599617044972193408,386
599617044979880448,384
599617044987567616,379
599617044995254784,353
599617045002941824,255
599617045010628992,143
599617045018316032,265
599617045026003200,759
599617045033690368,1287
599617045041377408,1208
599617045049064576,482
599617045056751744,-14
599617045064438784,100
599617045072125952,262
599617045079813120,272
599617045087500160,291
599617045095187328,305
599617045102874496,298
599617045110561536,308
599617045118248704,317
599617045125935744,312
599617045133622912,310
599617045141310080,315
599617045148997120,312
599617045156684288,315
599617045164371456,322
599617045172058496,327
599617045179745664,324
599617045187432832,332
599617045195119872,339
599617045202807040,341
599617045210494080,351
599617045218181248,365
599617045225868416,372
599617045233555456,374
599617045241242624,382
599617045248929792,386
599617045256616832,386
599617045264304000,386
599617045271991168,377
599617045279678208,355
599617045287365376,329
599617045295052416,303
599617045302739584,265
599617045310426752,226
599617045318113792,198
599617045325800886,176
599617045333487488,167
599617045341174144,162
599617045348860928,152
599617045356547584,148
599617045364234240,152
599617045371921024,152
599617045379607680,148
599617045387294464,145
599617045394981120,150
599617045402667776,150
599617045410354560,152
599617045418041216,157
599617045425727872,160
599617045433414656,162
599617045441101312,162
599617045448788096,164
599617045456474752,164
599617045464161408,162
599617045471848192,162
599617045479534848,164
599617045487221504,164
599617045494908288,162
599617045502594944,162
599617045510281728,160
599617045517968384,157
599617045525655040,155
599617045533341824,155
599617045541028480,155
599617045548715136,150
599617045556401920,145
599617045564088576,148
599617045571775360,152
599617045579462016,152
599617045587148672,150
599617045594835456,150
599617045602522112,145
599617045610208768,143
599617045617895552,145
599617045625582208,143
599617045633268992,136
599617045640955648,136
599617045648642304,128
599617045656329088,117
599617045664015744,114
599617045671702400,128
599617045679389184,148
599617045687075840,152
599617045694762624,160
599617045702449280,164
599617045710135936,143
599617045717822720,126
599617045725509376,133
599617045733196032,136
599617045740882816,133
599617045748569472,131
599617045756256256,131
599617045763942912,128
599617045771629568,126
599617045779316352,107
599617045787003008,19
599617045794689664,-93
599617045802376448,21
599617045810063104,518
599617045817749888,1065
599617045825436544,964
599617045833123200,160
599617045840809984,-348
599617045848496640,-157
599617045856183296,38
599617045863870080,42
599617045871556736,95
599617045879243520,121
599617045886930265,97
599617045894616960,112
599617045902303616,131
599617045909990400,121
599617045917677056,121
599617045925363712,133
599617045933050496,136
599617045940737152,133
599617045948423936,138
599617045956110592,145
599617045963797248,152
599617045971484032,164
599617045979170688,174
599617045986857344,183
599617045994544128,193
599617046002230784,205
599617046009917568,214
599617046017604224,224
599617046025290880,234
599617046032977664,238
599617046040664320,243
599617046048350976,241
599617046056037760,226
599617046063724416,210
599617046071411200,186
599617046079097856,152
599617046086784512,114
599617046094471296,71
599617046102157952,35
599617046109844608,19
599617046117531392,14
599617046125218048,7
599617046132904832,-2
599617046140591488,-2
599617046148278144,7
599617046155964928,4
599617046163651584,2
599617046171338240,9
599617046179025024,19
599617046186711680,21
599617046194398464,23
599617046202085120,31
599617046209771776,33
599617046217458560,38
599617046225145216,42
599617046232831872,42
599617046240518656,45
599617046248205312,47
599617046255892096,47
599617046263578752,52
599617046271265408,52
599617046278952192,47
599617046286638848,47
599617046294325504,47
599617046302012288,45
599617046309698944,45
599617046317385728,45
599617046325072384,47
599617046332759040,50
599617046340445824,45
599617046348132480,42
599617046355819136,47
599617046363505920,47
599617046371192576,45
599617046378879360,47
599617046386566016,47
599617046394252672,38
599617046401939456,33
599617046409626112,31
599617046417312768,21
599617046424999552,21
599617046432686208,38
599617046440372992,57
599617046448059644,66
599617046455746816,76
599617046463433984,69
599617046471121024,50
599617046478808192,45
599617046486495360,50
599617046494182400,50
599617046501869568,47
599617046509556608,50
599617046517243776,47
599617046524930944,47
599617046532617984,47
599617046540305152,-2
599617046547992320,-128
599617046555679360,-174
599617046563366528,138
599617046571053696,747
599617046578740736,1077
599617046586427904,580
599617046594115072,-207
599617046601802112,-343
599617046609489280,-90
599617046617176320,-23
599617046624863488,-4
599617046632550656,45
599617046640237696,35
599617046647924864,26
599617046655612032,47
599617046663299072,54
599617046670986240,52
599617046678673408,57
599617046686360448,64
599617046694047616,66
599617046701734656,71
599617046709421824,78
599617046717108992,83
599617046724796032,95
599617046732483200,105
599617046740170368,109
599617046747857408,121
599617046755544576,136
599617046763231744,148
599617046770918784,155
599617046778605952,164
599617046786293120,174
599617046793980160,179
599617046801667328,176
599617046809354368,171
599617046817041536,157
599617046824728704,138
599617046832415744,107
599617046840102912,66
599617046847790080,26
599617046855477120,-2
599617046863164288,-21
599617046870851456,-35
599617046878538496,-42
599617046886225664,-42
599617046893912704,-42
599617046901599872,-47
599617046909287040,-45
599617046916974080,-42
599617046924661248,-35
599617046932348416,-33
599617046940035456,-31
599617046947722624,-28
599617046955409792,-21
599617046963096832,-14
599617046970784000,-11
599617046978471168,-9
599617046986158208,-4
599617046993845376,-2
599617047001532416,2
599617047009219545,4
599617047016906240,7
599617047024592896,7
599617047032279680,7
599617047039966336,4
599617047047652992,7
599617047055339776,7
599617047063026432,4
599617047070713216,7
599617047078399872,7
599617047086086528,4
599617047093773312,4
599617047101459968,4
599617047109146624,4
599617047116833408,4
599617047124520064,7
599617047132206848,9
599617047139893504,9
599617047147580160,11
599617047155266944,11
599617047162953600,11
599617047170640256,11
599617047178327040,14
599617047186013696,14
599617047193700480,14
599617047201387136,14
599617047209073792,9
599617047216760576,4
599617047224447232,-2
599617047232133888,-9
599617047239820672,-7
599617047247507328,16
599617047255194112,33
599617047262880768,40
599617047270567424,50
599617047278254208,42
599617047285940864,23
599617047293627520,16
599617047301314304,21
599617047309000960,21
599617047316687744,21
599617047324374400,21
599617047332061056,23
599617047339747840,23
599617047347434496,19
599617047355121152,-31
599617047362807936,-155
599617047370494592,-195
599617047378181376,109
599617047385868032,706
599617047393554688,1048
599617047401241472,604
599617047408928128,-148
599617047416614784,-322
599617047424301568,-109
599617047431988224,-40
599617047439675008,-33
599617047447361664,-2
599617047455048320,-4
599617047462735104,-9
599617047470421760,11
599617047478108416,19
599617047485795200,16
599617047493481856,26
599617047501168640,31
599617047508855296,31
599617047516541952,38
599617047524228736,45
599617047531915392,50
599617047539602048,57
599617047547288832,66
599617047554975488,76
599617047562662272,85
599617047570348924,95
599617047578035840,107
599617047585722752,119
599617047593409664,131
599617047601096576,140
599617047608783488,143
599617047616470400,143
599617047624157312,140
599617047631844224,131
599617047639531136,114
599617047647218048,90
599617047654904960,54
599617047662591872,19
599617047670278784,-9
599617047677965696,-33
599617047685652608,-50
599617047693339520,-54
599617047701026432,-57
599617047708713344,-59
599617047716400256,-62
599617047724087168,-57
599617047731774080,-52
599617047739460992,-50
599617047747147904,-45
599617047754834816,-42
599617047762521728,-38
599617047770208640,-33
599617047777895552,-28
599617047785582464,-26
599617047793269376,-19
599617047800956288,-16
599617047808643200,-14
599617047816330112,-9
599617047824017024,-7
599617047831703936,-2
599617047839390848,-2
599617047847077760,-4
599617047854764672,-4
599617047862451584,0
599617047870138496,0
599617047877825408,-2
599617047885512320,0
599617047893199232,0
599617047900886144,-4
599617047908573056,-4
599617047916259968,-2
599617047923946880,0
599617047931633792,0
599617047939320704,2
599617047947007616,4
599617047954694528,2
599617047962381440,0
599617047970068352,2
599617047977755264,7
599617047985442176,9
599617047993129088,7
599617048000816000,4
599617048008502912,7
599617048016189824,9
599617048023876736,9
599617048031563648,7
599617048039250560,0
599617048046937472,-4
599617048054624384,-4
599617048062311296,-9
599617048069998208,-4
599617048077685120,16
599617048085372032,31
599617048093058944,35
599617048100745856,42
599617048108432768,33
599617048116119680,14
599617048123806592,14
599617048131493564,21
599617048139180288,19
599617048146867072,19
599617048154553856,19
599617048162240640,19
599617048169927424,21
599617048177614208,11
599617048185300992,-57
599617048192987648,-181
599617048200674432,-145
599617048208361216,267
599617048216048000,855
599617048223734784,981
599617048231421568,317
599617048239108352,-358
599617048246795136,-324
599617048254481920,-81
599617048262168704,-54
599617048269855488,-28
599617048277542272,19
599617048285228928,2
599617048292915712,0
599617048300602496,26
599617048308289280,28
599617048315976064,21
599617048323662848,28
599617048331349632,38
599617048339036416,42
599617048346723200,50
599617048354409984,54
599617048362096768,62
599617048369783552,74
599617048377470208,88
599617048385156992,90
599617048392843776,95
599617048400530560,109
599617048408217344,124
599617048415904128,138
599617048423590912,152
599617048431277696,160
599617048438964480,157
599617048446651264,157
599617048454338048,157
599617048462024832,148
599617048469711488,121
599617048477398272,88
599617048485085056,54
599617048492771840,16
599617048500458624,-19
599617048508145408,-38
599617048515832192,-50
599617048523518976,-59
599617048531205760,-66
599617048538892544,-64
599617048546579328,-64
599617048554266112,-64
599617048561952768,-57
599617048569639552,-52
599617048577326336,-50
599617048585013120,-50
599617048592699904,-45
599617048600386688,-38
599617048608073472,-31
599617048615760256,-26
599617048623447040,-23
599617048631133824,-19
599617048638820608,-14
599617048646507392,-14
599617048654194176,-11
599617048661880832,-7
599617048669567616,-9
599617048677254400,-11
599617048684941184,-7
599617048692628030,-7
599617048700314752,-11
599617048708001536,-16
599617048715688448,-16
599617048723375232,-16
599617048731062144,-16
599617048738748928,-14
599617048746435840,-9
599617048754122624,-11
599617048761809536,-14
599617048769496320,-9
599617048777183232,-7
599617048784870016,-9
599617048792556928,-9
599617048800243712,-9
599617048807930496,-11
599617048815617408,-21
599617048823304192,-28
599617048830991104,-31
599617048838677888,-16
599617048846364800,4
599617048854051584,14
599617048861738496,23
599617048869425280,28
599617048877112192,14
599617048884798976,-2
599617048892485888,2
599617048900172672,7
599617048907859456,7
599617048915546368,7
599617048923233152,7
599617048930920064,7
599617048938606848,9
599617048946293760,0
599617048953980544,-71
599617048961667456,-205
599617048969354240,-179
599617048977041152,236
599617048984727936,847
599617048992414848,986
599617049000101632,320
599617049007788416,-355
599617049015475328,-324
599617049023162112,-97
599617049030849024,-66
599617049038535808,-33
599617049046222720,7
599617049053909504,-9
599617049061596416,-7
599617049069283200,11
599617049076970112,11
599617049084656896,9
599617049092343808,21
599617049100030592,28
599617049107717376,28
599617049115404288,38
599617049123091072,45
599617049130777984,50
599617049138464768,57
599617049146151680,69
599617049153838464,78
599617049161525376,90
599617049169212160,102
599617049176899072,114
599617049184585856,128
599617049192272768,140
599617049199959552,148
599617049207646336,150
599617049215333248,150
599617049223020032,145
599617049230706944,128
599617049238393728,105
599617049246080640,74
599617049253767579,33
599617049261454720,-9
599617049269141888,-38
599617049276828928,-54
599617049284516096,-66
599617049292203264,-71
599617049299890304,-74
599617049307577472,-76
599617049315264512,-76
599617049322951680,-74
599617049330638848,-69
599617049338325888,-64
599617049346013056,-59
599617049353700224,-59
599617049361387264,-54
599617049369074432,-45
599617049376761600,-42
599617049384448640,-35
599617049392135808,-31
599617049399822976,-26
599617049407510016,-23
599617049415197184,-19
599617049422884224,-16
599617049430571392,-19
599617049438258560,-16
599617049445945600,-14
599617049453632768,-14
599617049461319936,-16
599617049469006976,-16
599617049476694144,-16
599617049484381312,-14
599617049492068352,-16
599617049499755520,-16
599617049507442560,-11
599617049515129728,-11
599617049522816896,-11
599617049530503936,-11
599617049538191104,-7
599617049545878272,-7
599617049553565312,-7
599617049561252480,-7
599617049568939648,-7
599617049576626688,-7
599617049584313856,-4
599617049592001024,-4
599617049599688064,-4
599617049607375232,-4
599617049615062272,-2
599617049622749440,-2
599617049630436608,-2
599617049638123648,0
599617049645810816,-4
599617049653497984,-11
599617049661185024,-19
599617049668872192,-26
599617049676559360,-14
599617049684246400,16
599617049691933568,38
599617049699620608,50
599617049707307776,52
599617049714994944,28
599617049722681984,2
599617049730369152,4
599617049738056320,14
599617049745743360,9
599617049753430528,7
599617049761117696,9
599617049768804736,7
599617049776491904,7
599617049784179072,-2
599617049791866112,-66
599617049799553280,-191
599617049807240320,-174
599617049814927480,219
599617049822614144,819
599617049830300800,1005
599617049837987584,415
599617049845674240,-269
599617049853360896,-310
599617049861047680,-95
599617049868734336,-59
599617049876421120,-47
599617049884107776,-14
599617049891794432,-16
599617049899481216,-16
599617049907167872,-2
599617049914854528,2
599617049922541312,2
599617049930227968,9
599617049937914752,16
599617049945601408,21
599617049953288064,26
599617049960974848,31
599617049968661504,35
599617049976348160,45
599617049984034944,54
599617049991721600,62
599617049999408384,71
599617050007095040,83
599617050014781696,97
599617050022468480,109
599617050030155136,119
599617050037841792,126
599617050045528576,133
599617050053215232,133
599617050060902016,131
599617050068588672,119
599617050076275328,102
599617050083962112,74
599617050091648768,40
599617050099335424,7
599617050107022208,-23
599617050114708864,-45
599617050122395648,-62
599617050130082304,-69
599617050137768960,-69
599617050145455744,-69
599617050153142400,-69
599617050160829056,-69
599617050168515840,-66
599617050176202496,-62
599617050183889280,-57
599617050191575936,-52
599617050199262592,-50
599617050206949376,-45
599617050214636032,-40
599617050222322688,-35
599617050230009472,-31
599617050237696128,-28
599617050245382912,-23
599617050253069568,-16
599617050260756224,-4
599617050268443008,0
599617050276129664,-7
599617050283816320,-4
599617050291503104,-2
599617050299189760,-9
599617050306876544,-11
599617050314563200,-9
599617050322249856,-9
599617050329936640,-11
599617050337623296,-11
599617050345309952,-9
599617050352996736,-11
599617050360683392,-14
599617050368370176,-14
599617050376056859,-9
599617050383744000,-7
599617050391431168,-9
599617050399118208,-9
599617050406805376,-7
599617050414492544,-7
599617050422179584,-9
599617050429866752,-7
599617050437553792,-7
599617050445240960,-9
599617050452928128,-9
599617050460615168,-7
599617050468302336,-9
599617050475989504,-7
599617050483676544,-4
599617050491363712,-9
599617050499050880,-16
599617050506737920,-21
599617050514425088,-26
599617050522112256,-26
599617050529799296,-7
599617050537486464,11
599617050545173504,16
599617050552860672,26
599617050560547840,26
599617050568234880,2
599617050575922048,-9
599617050583609216,0
599617050591296256,4
599617050598983424,2
599617050606670592,2
599617050614357632,0
599617050622044800,2
599617050629731840,2
599617050637419008,-31
599617050645106176,-145
599617050652793216,-217
599617050660480384,23
599617050668167552,594
599617050675854592,1007
599617050683541760,671
599617050691228928,-121
599617050698915968,-408
599617050706603136,-186
599617050714290304,-69
599617050721977344,-57
599617050729664512,-14
599617050737351552,-9
599617050745038720,-19
599617050752725888,-2
599617050760412928,7
599617050768100096,2
599617050775787264,11
599617050783474304,26
599617050791161472,26
599617050798848640,28
599617050806535680,33
599617050814222848,42
599617050821909888,52
599617050829597056,62
599617050837284224,69
599617050844971264,78
599617050852658432,90
599617050860345600,100
599617050868032640,114
599617050875719808,128
599617050883406976,138
599617050891094016,145
599617050898781184,148
599617050906468224,138
599617050914155392,128
599617050921842560,119
599617050929529600,95
599617050937216756,59
599617050944903424,19
599617050952590080,-19
599617050960276864,-42
599617050967963520,-62
599617050975650176,-76
599617050983336960,-81
599617050991023616,-81
599617050998710400,-81
599617051006397056,-81
599617051014083712,-81
599617051021770496,-76
599617051029457152,-66
599617051037143808,-64
599617051044830592,-64
599617051052517248,-64
599617051060204032,-57
599617051067890688,-50
599617051075577344,-42
599617051083264128,-40
599617051090950784,-38
599617051098637440,-35
599617051106324224,-33
599617051114010880,-35
599617051121697664,-42
599617051129384320,-50
599617051137070976,-45
599617051144757760,-42
599617051152444416,-40
599617051160131072,-31
599617051167817856,-23
599617051175504512,-19
599617051183191296,-19
599617051190877952,-19
599617051198564608,-21
599617051206251392,-19
599617051213938048,-16
599617051221624704,-14
599617051229311488,-11
599617051236998144,-14
599617051244684928,-16
599617051252371584,-11
599617051260058240,-7
599617051267745024,-14
599617051275431680,-19
599617051283118336,-21
599617051290805120,-31
599617051298491776,-35
599617051306178560,-16
599617051313865216,4
599617051321551872,14
599617051329238656,19
599617051336925312,21
599617051344611968,2
599617051352298752,-9
599617051359985408,-2
599617051367672192,2
599617051375358848,-2
599617051383045504,0
599617051390732288,2
599617051398418944,-2
599617051406105600,-2
599617051413792384,-16
599617051421479040,-100
599617051429165824,-219
599617051436852480,-124
599617051444539136,370
599617051452225920,938
599617051459912576,878
599617051467599232,90
599617051475286016,-449
599617051482972672,-291
599617051490659456,-93
599617051498346135,-78
599617051506033152,-23
599617051513720192,4
599617051521407104,-19
599617051529094144,-7
599617051536781056,11
599617051544468096,7
599617051552155008,9
599617051559842048,16
599617051567528960,19
599617051575216000,28
599617051582903040,38
599617051590589952,40
599617051598276992,45
599617051605963904,57
599617051613650944,71
599617051621337856,81
599617051629024896,90
599617051636711808,102
599617051644398848,114
599617051652085760,128
599617051659772800,143
599617051667459840,150
599617051675146752,150
599617051682833792,150
599617051690520704,143
599617051698207744,128
599617051705894656,102
599617051713581696,62
599617051721268608,19
599617051728955648,-21
599617051736642688,-47
599617051744329600,-64
599617051752016640,-76
599617051759703552,-83
599617051767390592,-88
599617051775077504,-88
599617051782764544,-81
599617051790451456,-78
599617051798138496,-76
599617051805825408,-74
599617051813512448,-69
599617051821199488,-66
599617051828886400,-64
599617051836573440,-57
599617051844260352,-47
599617051851947392,-45
599617051859634304,-45
599617051867321344,-40
599617051875008256,-35
599617051882695296,-33
599617051890382336,-28
599617051898069248,-26
599617051905756288,-28
599617051913443200,-26
599617051921130240,-26
599617051928817152,-28
599617051936504192,-26
599617051944191104,-23
599617051951878144,-26
599617051959565184,-26
599617051967252096,-26
599617051974939136,-26
599617051982626048,-23
599617051990313088,-21
599617051998000000,-21
599617052005687040,-23
599617052013373952,-21
599617052021060992,-19
599617052028747904,-19
599617052036434944,-21
599617052044121984,-19
599617052051808896,-16
599617052059495862,-16
599617052067182592,-16
599617052074869376,-14
599617052082556288,-11
599617052090243072,-14
599617052097929984,-21
599617052105616768,-28
599617052113303680,-35
599617052120990464,-38
599617052128677376,-21
599617052136364160,2
599617052144051072,11
599617052151737856,16
599617052159424768,21
599617052167111552,2
599617052174798336,-14
599617052182485248,-7
599617052190172032,0
599617052197858944,-4
599617052205545728,-7
599617052213232640,-4
599617052220919424,-2
599617052228606336,-2
599617052236293120,-16
599617052243980032,-95
599617052251666816,-219
599617052259353728,-155
599617052267040512,296
599617052274727296,888
599617052282414208,962
599617052290100992,281
599617052297787904,-334
599617052305474688,-289
599617052313161600,-90
599617052320848384,-71
599617052328535296,-47
599617052336222080,-16
599617052343908992,-26
599617052351595776,-21
599617052359282688,-4
599617052366969472,-4
599617052374656256,-7
599617052382343168,2
599617052390029952,9
599617052397716864,11
599617052405403648,16
599617052413090560,23
599617052420777344,33
599617052428464256,40
599617052436151040,47
599617052443837952,57
599617052451524736,69
599617052459211648,81
599617052466898432,93
599617052474585216,105
599617052482272128,119
599617052489958912,124
599617052497645824,126
599617052505332608,128
599617052513019520,124
599617052520706304,112
599617052528393216,90
599617052536080000,62
599617052543766912,26
599617052551453696,-14
599617052559140608,-40
599617052566827392,-59
599617052574514176,-71
599617052582201088,-78
599617052589887872,-81
599617052597574784,-81
599617052605261568,-83
599617052612948480,-78
599617052620635411,-74
599617052628322560,-71
599617052636009728,-69
599617052643696768,-64
599617052651383936,-59
599617052659071104,-57
599617052666758144,-54
599617052674445312,-50
599617052682132352,-42
599617052689819520,-38
599617052697506688,-35
599617052705193728,-33
599617052712880896,-31
599617052720568064,-28
599617052728255104,-28
599617052735942272,-26
599617052743629440,-23
599617052751316480,-26
599617052759003648,-26
599617052766690816,-21
599617052774377856,-21
599617052782065024,-23
599617052789752064,-23
599617052797439232,-23
599617052805126400,-21
599617052812813440,-21
599617052820500608,-23
599617052828187776,-21
599617052835874816,-19
599617052843561984,-16
599617052851249152,-16
599617052858936192,-16
599617052866623360,-16
599617052874310400,-16
599617052881997568,-16
599617052889684736,-16
599617052897371776,-16
599617052905058944,-14
599617052912746112,-14
599617052920433152,-14
599617052928120320,-14
599617052935807488,-19
599617052943494528,-21
599617052951181696,-31
599617052958868864,-38
599617052966555904,-28
599617052974243072,-2
599617052981930112,9
599617052989617280,11
599617052997304448,19
599617053004991488,11
599617053012678656,-7
599617053020365824,-14
599617053028052864,-9
599617053035740032,-9
599617053043427200,-9
599617053051114240,-7
599617053058801408,-7
599617053066488448,-4
599617053074175616,-9
599617053081862784,-45
599617053089549824,-162
599617053097236992,-234
599617053104924160,9
599617053112611200,587
599617053120298368,1010
599617053127985536,687
599617053135672576,-88
599617053143359744,-382
599617053151046784,-181
599617053158733952,-74
599617053166421120,-71
599617053174108160,-38
599617053181795308,-26
599617053189482112,-28
599617053197168896,-19
599617053204855680,-9
599617053212542464,-7
599617053220229248,0
599617053227916032,2
599617053235602816,7
599617053243289472,16
599617053250976256,21
599617053258663040,23
599617053266349824,33
599617053274036608,45
599617053281723392,59
599617053289410176,66
599617053297096960,74
599617053304783744,88
599617053312470528,105
599617053320157312,117
599617053327844096,126
599617053335530752,131
599617053343217536,133
599617053350904320,136
599617053358591104,128
599617053366277888,109
599617053373964672,83
599617053381651456,52
599617053389338240,11
599617053397025024,-23
599617053404711808,-47
599617053412398592,-69
599617053420085376,-81
599617053427772032,-83
599617053435458816,-85
599617053443145600,-85
599617053450832384,-83
599617053458519168,-81
599617053466205952,-76
599617053473892736,-74
599617053481579520,-74
599617053489266304,-71
599617053496953088,-64
599617053504639872,-59
599617053512326656,-54
599617053520013312,-50
599617053527700096,-42
599617053535386880,-42
599617053543073664,-40
599617053550760448,-38
599617053558447232,-31
599617053566134016,-23
599617053573820800,-28
599617053581507584,-35
599617053589194368,-31
599617053596881152,-23
599617053604567936,-26
599617053612254720,-26
599617053619941376,-26
599617053627628160,-28
599617053635314944,-31
599617053643001728,-26
599617053650688512,-21
599617053658375296,-23
599617053666062080,-23
599617053673748864,-21
599617053681435648,-21
599617053689122432,-21
599617053696809216,-16
599617053704496000,-16
599617053712182656,-21
599617053719869440,-21
599617053727556224,-16
599617053735243008,-14
599617053742929778,-14
599617053750616832,-16
599617053758303872,-21
599617053765990912,-21
599617053773677952,-26
599617053781364992,-35
599617053789052032,-33
599617053796739200,-11
599617053804426240,2
599617053812113280,7
599617053819800320,14
599617053827487360,11
599617053835174400,-4
599617053842861440,-14
599617053850548480,-7
599617053858235520,-9
599617053865922560,-11
599617053873609728,-7
599617053881296768,-4
599617053888983808,-11
599617053896670848,-14
599617053904357888,-19
599617053912044928,-100
599617053919731968,-224
599617053927419008,-138
599617053935106048,341
599617053942793088,914
599617053950480128,900
599617053958167296,124
599617053965854336,-463
599617053973541376,-320
599617053981228416,-102
599617053988915456,-90
599617053996602496,-35
599617054004289536,0
599617054011976576,-28
599617054019663616,-16
599617054027350656,9
599617054035037824,2
599617054042724864,-2
599617054050411904,11
599617054058098944,21
599617054065785984,26
599617054073473024,31
599617054081160064,35
599617054088847104,42
599617054096534144,57
599617054104221184,69
599617054111908224,78
599617054119595392,85
599617054127282432,97
599617054134969472,112
599617054142656512,128
599617054150343552,140
599617054158030592,148
599617054165717632,155
599617054173404672,152
599617054181091712,148
599617054188778752,136
599617054196465920,109
599617054204152960,74
599617054211840000,28
599617054219527040,-14
599617054227214080,-45
599617054234901120,-62
599617054242588160,-74
599617054250275200,-85
599617054257962240,-93
599617054265649280,-93
599617054273336320,-90
599617054281023488,-85
599617054288710528,-83
599617054296397568,-78
599617054304084588,-71
599617054311771520,-69
599617054319458432,-66
599617054327145344,-62
599617054334832256,-54
599617054342519168,-47
599617054350206080,-42
599617054357892992,-42
599617054365579904,-40
599617054373266816,-35
599617054380953728,-31
599617054388640640,-31
599617054396327552,-28
599617054404014464,-28
599617054411701376,-31
599617054419388288,-31
599617054427075200,-28
599617054434762112,-31
599617054442449024,-31
599617054450135936,-28
599617054457822848,-23
599617054465509760,-23
599617054473196672,-23
599617054480883584,-21
599617054488570496,-21
599617054496257408,-21
599617054503944320,-21
599617054511631232,-19
599617054519318144,-21
599617054527005056,-23
599617054534691968,-21
599617054542378880,-19
599617054550065792,-16
599617054557752704,-14
599617054565439616,-14
599617054573126528,-16
599617054580813440,-14
599617054588500352,-14
599617054596187264,-19
599617054603874176,-26
599617054611561088,-31
599617054619248000,-38
599617054626934912,-31
599617054634621824,-7
599617054642308736,4
599617054649995648,14
599617054657682560,23
599617054665369472,11
599617054673056384,-11
599617054680743296,-11
599617054688430208,-4
599617054696117120,-7
599617054703804032,-9
599617054711490944,-9
599617054719177856,-7
599617054726864768,-7
599617054734551680,-4
599617054742238592,-40
599617054749925504,-155
599617054757612416,-241
599617054765299328,-11
599617054772986240,575
599617054780673152,1039
599617054788360064,728
599617054796046976,-95
599617054803733888,-417
599617054811420800,-195
599617054819107712,-81
599617054826794624,-76
599617054834481536,-28
599617054842168448,-23
599617054849855360,-38
599617054857542272,-19
599617054865229228,-7
599617054872916096,-9
599617054880603008,-4
599617054888289920,2
599617054895976832,7
599617054903663744,11
599617054911350656,19
599617054919037568,23
599617054926724480,31
599617054934411392,40
599617054942098304,47
599617054949785216,59
599617054957472128,71
599617054965159040,83
599617054972845952,97
599617054980532864,109
599617054988219776,119
599617054995906688,131
599617055003593600,136
599617055011280512,133
599617055018967424,124
599617055026654336,107
599617055034341248,83
599617055042028160,45
599617055049715072,2
599617055057401984,-35
599617055065088896,-57
599617055072775808,-74
599617055080462720,-85
599617055088149632,-93
599617055095836544,-93
599617055103523456,-90
599617055111210368,-90
599617055118897280,-88
599617055126584192,-83
599617055134271104,-78
599617055141958016,-74
599617055149644928,-71
599617055157331840,-66
599617055165018752,-62
599617055172705664,-57
599617055180392576,-54
599617055188079488,-50
599617055195766400,-45
599617055203453312,-42
599617055211140224,-40
599617055218827136,-35
599617055226514048,-31
599617055234200960,-31
599617055241887872,-31
599617055249574784,-31
599617055257261696,-31
599617055264948608,-28
599617055272635520,-28
599617055280322432,-31
599617055288009344,-31
599617055295696256,-28
599617055303383168,-28
599617055311070080,-31
599617055318756992,-28
599617055326443904,-26
599617055334130816,-26
599617055341817728,-26
599617055349504640,-21
599617055357191552,-21
599617055364878464,-23
599617055372565376,-23
599617055380252288,-23
599617055387939200,-23
599617055395626112,-21
599617055403313024,-19
599617055410999936,-19
599617055418686848,-19
599617055426373864,-19
599617055434060928,-16
599617055441747968,-14
599617055449435008,-16
599617055457122048,-16
599617055464809088,-14
599617055472496128,-16
599617055480183296,-19
599617055487870336,-23
599617055495557376,-33
599617055503244416,-40
599617055510931456,-33
599617055518618496,-9
599617055526305536,7
599617055533992576,11
599617055541679616,16
599617055549366656,11
599617055557053824,-9
599617055564740864,-19
599617055572427904,-11
599617055580114944,-9
599617055587801984,-11
599617055595489024,-9
599617055603176064,-9
599617055610863104,-11
599617055618550144,-11
599617055626237184,-38
599617055633924224,-143
599617055641611392,-238
599617055649298432,-52
599617055656985472,501
599617055664672512,1005
599617055672359552,819
599617055680046592,52
599617055687733632,-363
599617055695420672,-212
599617055703107712,-81
599617055710794752,-78
599617055718481920,-47
599617055726168960,-33
599617055733856000,-40
599617055741543040,-31
599617055749230080,-21
599617055756917120,-21
599617055764604160,-14
599617055772291200,-4
599617055779978240,-2
599617055787665280,0
599617055795352320,9
599617055803039488,16
599617055810726528,21
599617055818413568,31
599617055826100608,40
599617055833787648,50
599617055841474688,62
599617055849161728,71
599617055856848768,83
599617055864535808,97
599617055872222848,112
599617055879910016,119
599617055887597056,124
599617055895284096,126
599617055902971136,119
599617055910658176,107
599617055918345216,88
599617055926032256,57
599617055933719296,16
599617055941406336,-21
599617055949093376,-50
599617055956780544,-69
599617055964467584,-81
599617055972154624,-90
599617055979841664,-90
599617055987528678,-88
599617055995215488,-88
599617056002902272,-85
599617056010589056,-83
599617056018275840,-78
599617056025962624,-76
599617056033649408,-76
599617056041336192,-71
599617056049022848,-66
599617056056709632,-62
599617056064396416,-57
599617056072083200,-54
599617056079769984,-50
599617056087456768,-45
599617056095143552,-45
599617056102830336,-40
599617056110517120,-33
599617056118203904,-31
599617056125890688,-31
599617056133577472,-31
599617056141264128,-31
599617056148950912,-33
599617056156637696,-33
599617056164324480,-31
599617056172011264,-31
599617056179698048,-31
599617056187384832,-28
599617056195071616,-28
599617056202758400,-33
599617056210445184,-31
599617056218131968,-23
599617056225818752,-23
599617056233505408,-26
599617056241192192,-26
599617056248878976,-23
599617056256565760,-23
599617056264252544,-21
599617056271939328,-23
599617056279626112,-23
599617056287312896,-21
599617056294999680,-19
599617056302686464,-19
599617056310373248,-21
599617056318060032,-21
599617056325746688,-19
599617056333433472,-16
599617056341120256,-16
599617056348807040,-16
599617056356493824,-14
599617056364180608,-9
599617056371867392,-14
599617056379554176,-16
599617056387240960,-19
599617056394927744,-23
599617056402614528,-28
599617056410301312,-31
599617056417987968,-26
599617056425674752,-4
599617056433361536,11
599617056441048320,19
599617056448735104,19
599617056456421888,7
599617056464108672,-9
599617056471795456,-11
599617056479482240,-4
599617056487169024,-7
599617056494855808,-9
599617056502542592,-7
599617056510229248,-7
599617056517916032,-4
599617056525602816,-7
599617056533289600,-50
599617056540976384,-171
599617056548663140,-224
599617056556349952,69
599617056564036736,666
599617056571723520,1027
599617056579410304,606
599617056587097088,-181
599617056594783872,-406
599617056602470656,-176
599617056610157312,-81
599617056617844096,-71
599617056625530880,-28
599617056633217664,-23
599617056640904448,-31
599617056648591232,-16
599617056656278016,-9
599617056663964800,-9
599617056671651584,-2
599617056679338368,7
599617056687025152,7
599617056694711936,11
599617056702398592,21
599617056710085376,33
599617056717772160,38
599617056725458944,45
599617056733145728,57
599617056740832512,66
599617056748519296,78
599617056756206080,93
599617056763892864,102
599617056771579648,117
599617056779266432,128
599617056786953216,138
599617056794639872,143
599617056802326656,140
599617056810013440,133
599617056817700224,124
599617056825387008,100
599617056833073792,62
599617056840760576,19
599617056848447360,-21
599617056856134144,-50
599617056863820928,-69
599617056871507712,-81
599617056879194496,-88
599617056886881152,-88
599617056894567936,-88
599617056902254720,-90
599617056909941504,-88
599617056917628288,-81
599617056925315072,-81
599617056933001856,-78
599617056940688640,-69
599617056948375424,-64
599617056956062208,-62
599617056963748992,-57
599617056971435776,-52
599617056979122560,-50
599617056986809216,-50
599617056994496000,-45
599617057002182784,-38
599617057009869568,-35
599617057017556352,-35
599617057025243136,-31
599617057032929920,-31
599617057040616704,-33
599617057048303488,-31
599617057055990272,-28
599617057063677056,-31
599617057071363840,-45
599617057079050496,-47
599617057086737280,-35
599617057094424064,-26
599617057102110848,-31
599617057109797610,-31
599617057117484672,-21
599617057125171712,-19
599617057132858752,-21
599617057140545792,-23
599617057148232832,-23
599617057155919872,-21
599617057163607040,-21
599617057171294080,-21
599617057178981120,-21
599617057186668160,-19
599617057194355200,-16
599617057202042240,-16
599617057209729280,-16
599617057217416320,-11
599617057225103360,-14
599617057232790400,-21
599617057240477568,-26
599617057248164608,-31
599617057255851648,-33
599617057263538688,-21
599617057271225728,-4
599617057278912768,9
599617057286599808,19
599617057294286848,19
599617057301973888,4
599617057309660928,-14
599617057317347968,-14
599617057325035136,-7
599617057332722176,-7
599617057340409216,-4
599617057348096256,-2
599617057355783296,-4
599617057363470336,-2
599617057371157376,-4
599617057378844416,-47
599617057386531456,-164
599617057394218496,-234
599617057401905664,19
599617057409592704,613
599617057417279744,1039
599617057424966784,666
599617057432653824,-169
599617057440340864,-439
599617057448027904,-191
599617057455714944,-85
599617057463401984,-71
599617057471089024,-11
599617057478776064,-14
599617057486463232,-31
599617057494150272,-7
599617057501837312,2
599617057509524352,-2
599617057517211392,4
599617057524898432,14
599617057532585472,16
599617057540272512,21
599617057547959552,31
599617057555646592,38
599617057563333760,47
599617057571020800,57
599617057578707840,64
599617057586394880,71
599617057594081920,83
599617057601768960,100
599617057609456000,119
599617057617143040,131
599617057624830080,140
599617057632517120,150
599617057640204160,152
599617057647891328,152
599617057655578368,145
599617057663265408,131
599617057670952420,100
599617057678639104,57
599617057686325760,14
599617057694012544,-23
599617057701699200,-54
599617057709385856,-74
599617057717072640,-85
599617057724759296,-90
599617057732446080,-93
599617057740132736,-95
599617057747819392,-90
599617057755506176,-88
599617057763192832,-85
599617057770879488,-81
599617057778566272,-78
599617057786252928,-74
599617057793939712,-69
599617057801626368,-64
599617057809313024,-59
599617057816999808,-57
599617057824686464,-54
599617057832373120,-47
599617057840059904,-42
599617057847746560,-40
599617057855433344,-40
599617057863120000,-42
599617057870806656,-38
599617057878493440,-33
599617057886180096,-31
599617057893866752,-31
599617057901553536,-31
599617057909240192,-33
599617057916926976,-33
599617057924613632,-31
599617057932300288,-31
599617057939987072,-28
599617057947673728,-28
599617057955360384,-28
599617057963047168,-26
599617057970733824,-23
599617057978420608,-26
599617057986107264,-23
599617057993793920,-21
599617058001480704,-23
599617058009167360,-23
599617058016854016,-23
599617058024540800,-21
599617058032227456,-23
599617058039914240,-21
599617058047600896,-21
599617058055287552,-21
599617058062974336,-21
599617058070660992,-21
599617058078347648,-19
599617058086034432,-19
599617058093721088,-16
599617058101407872,-14
599617058109094528,-16
599617058116781184,-19
599617058124467968,-19
599617058132154624,-21
599617058139841280,-28
599617058147528064,-40
599617058155214720,-38
599617058162901504,-16
599617058170588160,0
599617058178274816,9
599617058185961600,16
599617058193648256,14
599617058201334912,-4
599617058209021696,-19
599617058216708352,-11
599617058224395136,-9
599617058232081799,-11
599617058239768832,-11
599617058247455872,-9
599617058255142784,-9
599617058262829824,-9
599617058270516736,-26
599617058278203776,-109
599617058285890688,-231
599617058293577728,-150
599617058301264640,324
599617058308951680,919
599617058316638720,972
599617058324325632,272
599617058332012672,-339
599617058339699584,-289
599617058347386624,-100
599617058355073536,-83
599617058362760576,-59
599617058370447488,-33
599617058378134528,-42
599617058385821440,-38
599617058393508480,-23
599617058401195520,-19
599617058408882432,-16
599617058416569472,-11
599617058424256384,-7
599617058431943424,-4
599617058439630336,-7
599617058447317376,-4
599617058455004288,9
599617058462691328,9
599617058470378368,11
599617058478065280,26
599617058485752320,42
599617058493439232,62
599617058501126272,78
599617058508813184,90
599617058516500224,105
599617058524187136,117
599617058531874176,124
599617058539561088,126
599617058547248128,121
599617058554935168,112
599617058562622080,97
599617058570309120,69
599617058577996032,31
599617058585683072,-9
599617058593369984,-40
599617058601057024,-62
599617058608743936,-78
599617058616430976,-88
599617058624118016,-90
599617058631804928,-90
599617058639491968,-90
599617058647178880,-88
599617058654865920,-83
599617058662552832,-81
599617058670239872,-78
599617058677926784,-74
599617058685613824,-71
599617058693300864,-66
599617058700987776,-59
599617058708674816,-57
599617058716361728,-54
599617058724048768,-47
599617058731735680,-45
599617058739422720,-42
599617058747109632,-38
599617058754796672,-35
599617058762483584,-35
599617058770170624,-33
599617058777857664,-28
599617058785544576,-31
599617058793231526,-31
599617058800918272,-31
599617058808605056,-28
599617058816291968,-28
599617058823978752,-28
599617058831665664,-28
599617058839352448,-28
599617058847039360,-28
599617058854726144,-26
599617058862413056,-23
599617058870099840,-26
599617058877786752,-26
599617058885473536,-21
599617058893160448,-21
599617058900847232,-21
599617058908534016,-21
599617058916220928,-21
599617058923907712,-19
599617058931594624,-21
599617058939281408,-21
599617058946968320,-19
599617058954655104,-19
599617058962342016,-16
599617058970028800,-16
599617058977715712,-16
599617058985402496,-16
599617058993089408,-16
599617059000776192,-14
599617059008462976,-11
599617059016149888,-11
599617059023836672,-14
599617059031523584,-11
599617059039210368,-11
599617059046897280,-16
599617059054584064,-19
599617059062270976,-26
599617059069957760,-35
599617059077644672,-33
599617059085331456,-11
599617059093018368,9
599617059100705152,16
599617059108391936,21
599617059116078848,14
599617059123765632,-7
599617059131452544,-16
599617059139139328,-7
599617059146826240,-2
599617059154513024,-7
599617059162199936,-9
599617059169886720,-4
599617059177573632,-4
599617059185260416,-7
599617059192947328,-26
599617059200634112,-117
599617059208320896,-229
599617059216007808,-105
599617059223694592,398
599617059231381504,953
599617059239068288,907
599617059246755200,181
599617059254441984,-351
599617059262128896,-255
599617059269815680,-85
599617059277502592,-76
599617059285189376,-52
599617059292876288,-28
599617059300563072,-33
599617059308249856,-28
599617059315936768,-16
599617059323623552,-14
599617059331310464,-7
599617059338997248,0
599617059346684160,7
599617059354371075,11
599617059362057728,14
599617059369744384,19
599617059377431168,31
599617059385117824,40
599617059392804480,42
599617059400491264,54
599617059408177920,71
599617059415864704,83
599617059423551360,93
599617059431238016,107
599617059438924800,121
599617059446611456,128
599617059454298112,133
599617059461984896,138
599617059469671552,133
599617059477358336,124
599617059485044992,109
599617059492731648,78
599617059500418432,38
599617059508105088,0
599617059515791744,-31
599617059523478528,-59
599617059531165184,-78
599617059538851968,-85
599617059546538624,-85
599617059554225280,-85
599617059561912064,-85
599617059569598720,-83
599617059577285376,-83
599617059584972160,-78
599617059592658816,-76
599617059600345600,-71
599617059608032256,-64
599617059615718912,-62
599617059623405696,-62
599617059631092352,-54
599617059638779008,-50
599617059646465792,-47
599617059654152448,-42
599617059661839232,-40
599617059669525888,-35
599617059677212544,-28
599617059684899328,-26
599617059692585984,-31
599617059700272640,-28
599617059707959424,-23
599617059715646080,-26
599617059723332864,-28
599617059731019520,-23
599617059738706176,-21
599617059746392960,-23
599617059754079616,-21
599617059761766272,-21
599617059769453056,-21
599617059777139712,-19
599617059784826496,-19
599617059792513152,-19
599617059800199808,-14
599617059807886592,-11
599617059815573248,-14
599617059823259904,-16
599617059830946688,-11
599617059838633344,-9
599617059846320128,-11
599617059854006784,-11
599617059861693440,-11
599617059869380224,-14
599617059877066880,-7
599617059884753536,-7
599617059892440320,-9
599617059900126976,-7
599617059907813760,-7
599617059915500454,-7
599617059923187584,-9
599617059930874752,-9
599617059938561792,-14
599617059946248960,-23
599617059953936128,-28
599617059961623168,-9
599617059969310336,14
599617059976997376,23
599617059984684544,23
599617059992371712,19
599617060000058752,4
599617060007745920,-7
599617060015433088,-2
599617060023120128,2
599617060030807296,0
599617060038494464,-2
599617060046181504,-7
599617060053868672,-2
599617060061555840,4
599617060069242880,-4
599617060076930048,-74
599617060084617088,-198
599617060092304256,-183
599617060099991424,212
599617060107678464,819
599617060115365632,998
599617060123052800,348
599617060130739840,-386
599617060138427008,-386
599617060146114176,-124
599617060153801216,-88
599617060161488384,-52
599617060169175424,4
599617060176862592,-19
599617060184549760,-23
599617060192236800,2
599617060199923968,4
599617060207611136,0
599617060215298176,11
599617060222985344,19
599617060230672512,21
599617060238359552,28
599617060246046720,38
599617060253733888,40
599617060261420928,47
599617060269108096,62
599617060276795136,76
599617060284482304,85
599617060292169472,93
599617060299856512,107
599617060307543680,121
599617060315230848,136
599617060322917888,145
599617060330605056,155
599617060338292224,157
599617060345979264,157
599617060353666432,148
599617060361353472,126
599617060369040640,100
599617060376727808,59
599617060384414848,9
599617060392102016,-28
599617060399789184,-52
599617060407476224,-74
599617060415163392,-88
599617060422850560,-90
599617060430537600,-93
599617060438224768,-93
599617060445911936,-88
599617060453598976,-85
599617060461286144,-83
599617060468973184,-78
599617060476660355,-74
599617060484347008,-71
599617060492033664,-66
599617060499720448,-62
599617060507407104,-57
599617060515093760,-52
599617060522780544,-52
599617060530467200,-50
599617060538153984,-45
599617060545840640,-42
599617060553527296,-38
599617060561214080,-35
599617060568900736,-38
599617060576587392,-35
599617060584274176,-33
599617060591960832,-35
599617060599647616,-35
599617060607334272,-33
599617060615020928,-33
599617060622707712,-33
599617060630394368,-33
599617060638081024,-33
599617060645767808,-33
599617060653454464,-31
599617060661141248,-31
599617060668827904,-28
599617060676514560,-28
599617060684201344,-26
599617060691888000,-26
599617060699574656,-28
599617060707261440,-28
599617060714948096,-26
599617060722634880,-21
599617060730321536,-23
599617060738008192,-26
599617060745694976,-31
599617060753381632,-38
599617060761068288,-31
599617060768755072,-19
599617060776441728,-21
599617060784128512,-26
599617060791815168,-23
599617060799501824,-23
599617060807188608,-28
599617060814875264,-35
599617060822561920,-40
599617060830248704,-28
599617060837935360,-7
599617060845622144,7
599617060853308800,14
599617060860995456,19
599617060868682240,4
599617060876368896,-14
599617060884055552,-14
599617060891742336,-9
599617060899428992,-9
599617060907115776,-11
599617060914802432,-9
599617060922489088,-7
599617060930175872,-7
599617060937862528,-9
599617060945549184,-42
599617060953235968,-157
599617060960922624,-243
599617060968609408,-26
599617060976296064,551
599617060983982720,1027
599617060991669504,757
599617060999356160,-47
599617061007042816,-408
599617061014729600,-210
599617061022416256,-83
599617061030103040,-78
599617061037789734,-40
599617061045476864,-33
599617061053164032,-42
599617061060851072,-28
599617061068538240,-16
599617061076225408,-19
599617061083912448,-9
599617061091599616,-4
599617061099286656,-4
599617061106973824,2
599617061114660992,11
599617061122348032,16
599617061130035200,23
599617061137722368,35
599617061145409408,42
599617061153096576,52
599617061160783744,64
599617061168470784,76
599617061176157952,88
599617061183845120,102
599617061191532160,119
599617061199219328,128
599617061206906368,131
599617061214593536,131
599617061222280704,126
599617061229967744,114
599617061237654912,93
599617061245342080,59
599617061253029120,19
599617061260716288,-19
599617061268403456,-50
599617061276090496,-74
599617061283777664,-85
599617061291464704,-90
599617061299151872,-93
599617061306839040,-93
599617061314526080,-90
599617061322213248,-88
599617061329900416,-88
599617061337587456,-85
599617061345274624,-81
599617061352961792,-74
599617061360648832,-71
599617061368336000,-69
599617061376023168,-64
599617061383710208,-62
599617061391397376,-57
599617061399084416,-52
599617061406771584,-47
599617061414458752,-40
599617061422145792,-38
599617061429832960,-38
599617061437520128,-35
599617061445207168,-33
599617061452894336,-33
599617061460581504,-33
599617061468268544,-31
599617061475955712,-31
599617061483642752,-33
599617061491329920,-33
599617061499017088,-31
599617061506704128,-33
599617061514391296,-31
599617061522078464,-28
599617061529765504,-28
599617061537452672,-28
599617061545139840,-26
599617061552826880,-26
599617061560514048,-26
599617061568201088,-26
599617061575888256,-26
599617061583575424,-23
599617061591262464,-19
599617061598949631,-21
599617061606636288,-23
599617061614322944,-21
599617061622009728,-19
599617061629696384,-19
599617061637383040,-19
599617061645069824,-19
599617061652756480,-19
599617061660443264,-19
599617061668129920,-19
599617061675816576,-16
599617061683503360,-16
599617061691190016,-21
599617061698876672,-31
599617061706563456,-40
599617061714250112,-38
599617061721936896,-16
599617061729623552,4
599617061737310208,14
599617061744996992,19
599617061752683648,14
599617061760370304,-7
599617061768057088,-16
599617061775743744,-9
599617061783430528,-9
599617061791117184,-14
599617061798803840,-11
599617061806490624,-9
599617061814177280,-11
599617061821863936,-7
599617061829550720,-16
599617061837237376,-88
599617061844924160,-212
599617061852610816,-181
599617061860297472,219
599617061867984256,816
599617061875670912,998
599617061883357568,408
599617061891044352,-272
599617061898731008,-317
599617061906417792,-117
599617061914104448,-83
599617061921791104,-66
599617061929477888,-35
599617061937164544,-42
599617061944851200,-40
599617061952537984,-19
599617061960224640,-16
599617061967911424,-19
599617061975598080,-11
599617061983284736,-4
599617061990971520,0
599617061998658176,4
599617062006344832,11
599617062014031616,19
599617062021718272,26
599617062029405056,31
599617062037091712,40
599617062044778368,52
599617062052465152,66
599617062060151808,78
599617062067838464,90
599617062075525248,102
599617062083211904,117
599617062090898688,124
599617062098585344,121
599617062106272000,124
599617062113958784,119
599617062121645440,102
599617062129332096,76
599617062137018880,42
599617062144705536,0
599617062152392320,-35
599617062160079010,-62
599617062167765632,-78
599617062175452288,-90
599617062183139072,-95
599617062190825728,-95
599617062198512384,-95
599617062206199168,-95
599617062213885824,-93
599617062221572608,-85
599617062229259264,-81
599617062236945920,-78
599617062244632704,-76
599617062252319360,-76
599617062260006016,-71
599617062267692800,-64
599617062275379456,-57
599617062283066240,-54
599617062290752896,-57
599617062298439552,-50
599617062306126336,-40
599617062313812992,-40
599617062321499648,-42
599617062329186432,-40
599617062336873088,-38
599617062344559872,-35
599617062352246528,-33
599617062359933184,-33
599617062367619968,-33
599617062375306624,-33
599617062382993280,-35
599617062390680064,-35
599617062398366720,-31
599617062406053504,-31
599617062413740160,-33
599617062421426816,-31
599617062429113600,-31
599617062436800256,-28
599617062444486912,-31
599617062452173696,-31
599617062459860352,-28
599617062467547136,-26
599617062475233792,-28
599617062482920448,-28
599617062490607232,-23
599617062498293888,-21
599617062505980544,-23
599617062513667328,-23
599617062521353984,-21
599617062529040768,-21
599617062536727424,-21
599617062544414080,-21
599617062552100864,-19
599617062559787520,-19
599617062567474176,-19
599617062575160960,-21
599617062582847616,-28
599617062590534400,-38
599617062598221056,-40
599617062605907712,-26
599617062613594496,-4
599617062621281152,4
599617062628967808,9
599617062636654592,11
599617062644341248,-2
599617062652028032,-16
599617062659714688,-14
599617062667401344,-11
599617062675088128,-14
599617062682774784,-14
599617062690461440,-11
599617062698148224,-9
599617062705834880,-7
599617062713521664,-11
599617062721208389,-54
599617062728895104,-169
599617062736581760,-224
599617062744268544,50
599617062751955200,637
599617062759641856,1017
599617062767328640,604
599617062775015296,-212
599617062782702080,-441
599617062790388736,-183
599617062798075392,-85
599617062805762176,-76
599617062813448832,-23
599617062821135488,-26
599617062828822272,-35
599617062836508928,-14
599617062844195712,-4
599617062851882368,-9
599617062859569024,0
599617062867255808,9
599617062874942464,9
599617062882629120,19
599617062890315904,28
599617062898002560,31
599617062905689344,40
599617062913376000,52
599617062921062656,57
599617062928749440,64
599617062936436096,81
599617062944122752,97
599617062951809536,107
599617062959496192,121
599617062967182976,133
599617062974869632,143
599617062982556288,150
599617062990243072,155
599617062997929728,145
599617063005616384,126
599617063013303168,105
599617063020989824,74
599617063028676608,26
599617063036363264,-16
599617063044049920,-45
599617063051736704,-71
599617063059423360,-85
599617063067110016,-90
599617063074796800,-95
599617063082483456,-95
599617063090170240,-88
599617063097856896,-85
599617063105543552,-85
599617063113230336,-83
599617063120916992,-81
599617063128603648,-81
599617063136290432,-74
599617063143977088,-69
599617063151663872,-69
599617063159350528,-62
599617063167037184,-54
599617063174723968,-50
599617063182410624,-42
599617063190097280,-45
599617063197784064,-40
599617063205470720,-33
599617063213157504,-35
599617063220844160,-35
599617063228530816,-31
599617063236217600,-28
599617063243904256,-31
599617063251590912,-28
599617063259277696,-28
599617063266964352,-28
599617063274651136,-28
599617063282337768,-28
599617063290024960,-28
599617063297712128,-26
599617063305399168,-26
599617063313086336,-28
599617063320773504,-28
599617063328460544,-21
599617063336147712,-19
599617063343834752,-26
599617063351521920,-26
599617063359209088,-19
599617063366896128,-16
599617063374583296,-21
599617063382270464,-23
599617063389957504,-16
599617063397644672,-14
599617063405331840,-21
599617063413018880,-23
599617063420706048,-26
599617063428393216,-35
599617063436080256,-38
599617063443767424,-19
599617063451454464,4
599617063459141632,9
599617063466828800,16
599617063474515840,14
599617063482203008,-4
599617063489890176,-19
599617063497577216,-11
599617063505264384,-4
599617063512951552,-7
599617063520638592,-9
599617063528325760,-7
599617063536012800,-7
599617063543699968,-7
599617063551387136,-11
599617063559074176,-71
599617063566761344,-203
599617063574448512,-210
599617063582135552,164
599617063589822720,788
599617063597509888,1034
599617063605196928,446
599617063612884096,-315
599617063620571264,-382
599617063628258304,-138
599617063635945472,-93
599617063643632512,-64
599617063651319680,-14
599617063659006848,-28
599617063666693888,-35
599617063674381056,-11
599617063682068224,-7
599617063689755264,-9
599617063697442432,2
599617063705129600,7
599617063712816640,7
599617063720503808,16
599617063728190848,26
599617063735878016,31
599617063743565184,35
599617063751252224,45
599617063758939392,54
599617063766626560,66
599617063774313600,78
599617063782000768,90
599617063789687936,105
599617063797374976,119
599617063805062144,136
599617063812749312,145
599617063820436352,148
599617063828123520,143
599617063835810560,138
599617063843497669,121
599617063851184384,88
599617063858871040,47
599617063866557824,4
599617063874244480,-33
599617063881931136,-59
599617063889617920,-74
599617063897304576,-85
599617063904991360,-90
599617063912678016,-93
599617063920364672,-90
599617063928051456,-90
599617063935738112,-88
599617063943424768,-83
599617063951111552,-81
599617063958798208,-76
599617063966484992,-74
599617063974171648,-69
599617063981858304,-66
599617063989545088,-59
599617063997231744,-54
599617064004918400,-52
599617064012605184,-50
599617064020291840,-45
599617064027978624,-40
599617064035665280,-40
599617064043351936,-38
599617064051038720,-33
599617064058725376,-31
599617064066412032,-31
599617064074098816,-31
599617064081785472,-33
599617064089472256,-33
599617064097158912,-31
599617064104845568,-28
599617064112532352,-28
599617064120219008,-31
599617064127905664,-31
599617064135592448,-28
599617064143279104,-26
599617064150965888,-23
599617064158652544,-26
599617064166339200,-26
599617064174025984,-23
599617064181712640,-21
599617064189399296,-23
599617064197086080,-21
599617064204772736,-19
599617064212459520,-21
599617064220146176,-21
599617064227832832,-19
599617064235519616,-19
599617064243206272,-19
599617064250892928,-16
599617064258579712,-16
599617064266266368,-19
599617064273953152,-19
599617064281639808,-21
599617064289326464,-28
599617064297013248,-38
599617064304699904,-42
599617064312386560,-23
599617064320073344,0
599617064327760000,11
599617064335446784,19
599617064343133440,19
599617064350820096,2
599617064358506880,-14
599617064366193536,-14
599617064373880192,-9
599617064381566976,-9
599617064389253632,-11
599617064396940416,-9
599617064404627048,-7
599617064412313728,-7
599617064420000384,-9
599617064427687168,-50
599617064435373824,-167
599617064443060480,-234
599617064450747264,16
599617064458433920,601
599617064466120704,1036
599617064473807360,723
599617064481494016,-54
599617064489180800,-363
599617064496867456,-179
599617064504554112,-78
599617064512240896,-78
599617064519927552,-42
599617064527614336,-35
599617064535300992,-45
599617064542987648,-31
599617064550674432,-19
599617064558361088,-19
599617064566047744,-14
599617064573734528,-7
599617064581421184,-2
599617064589107968,2
599617064596794624,11
599617064604481280,14
599617064612168064,19
599617064619854720,28
599617064627541376,38
599617064635228160,45
599617064642914816,59
599617064650601600,71
599617064658288256,83
599617064665974912,97
599617064673661696,112
599617064681348352,121
599617064689035008,126
599617064696721792,128
599617064704408448,124
599617064712095232,109
599617064719781888,90
599617064727468544,57
599617064735155328,16
599617064742841984,-19
599617064750528640,-50
599617064758215424,-71
599617064765902080,-83
599617064773588864,-88
599617064781275520,-90
599617064788962176,-95
599617064796648960,-90
599617064804335616,-88
599617064812022272,-83
599617064819709056,-81
599617064827395712,-76
599617064835082496,-71
599617064842769152,-69
599617064850455808,-66
599617064858142592,-62
599617064865829248,-59
599617064873515904,-52
599617064881202688,-50
599617064888889344,-47
599617064896576128,-42
599617064904262784,-42
599617064911949440,-40
599617064919636224,-33
599617064927322880,-31
599617064935009536,-35
599617064942696320,-33
599617064950382976,-28
599617064958069760,-31
599617064965756427,-33
599617064973443456,-31
599617064981130496,-28
599617064988817408,-31
599617064996504448,-33
599617065004191360,-31
599617065011878400,-28
599617065019565312,-31
599617065027252352,-28
599617065034939264,-26
599617065042626304,-26
599617065050313344,-26
599617065058000256,-23
599617065065687296,-23
599617065073374208,-23
599617065081061248,-23
599617065088748160,-21
599617065096435200,-21
599617065104122112,-23
599617065111809152,-23
599617065119496064,-19
599617065127183104,-16
599617065134870144,-19
599617065142557056,-19
599617065150244096,-14
599617065157931008,-11
599617065165618048,-14
599617065173304960,-16
599617065180992000,-16
599617065188678912,-14
599617065196365952,-16
599617065204052992,-21
599617065211739904,-31
599617065219426944,-38
599617065227113856,-33
599617065234800896,-9
599617065242487808,7
599617065250174848,16
599617065257861760,21
599617065265548800,14
599617065273235712,-9
599617065280922752,-16
599617065288609792,-7
599617065296296704,-9
599617065303983744,-14
599617065311670656,-11
599617065319357696,-7
599617065327044608,-4
599617065334731648,-4
599617065342418560,-21
599617065350105600,-100
599617065357792640,-219
599617065365479552,-143
599617065373166592,320
599617065380853504,898
599617065388540544,943
599617065396227456,246
599617065403914496,-365
599617065411601408,-305
599617065419288448,-107
599617065426975488,-90
599617065434662400,-57
599617065442349440,-21
599617065450036352,-40
599617065457723392,-35
599617065465410304,-11
599617065473097344,-11
599617065480784256,-14
599617065488471296,-9
599617065496158208,0
599617065503845248,11
599617065511532288,16
599617065519219200,16
599617065526906154,23
599617065534592896,35
599617065542279680,45
599617065549966464,50
599617065557653248,62
599617065565340032,78
599617065573026816,90
599617065580713600,102
599617065588400256,117
599617065596087040,126
599617065603773824,131
599617065611460608,136
599617065619147392,133
599617065626834176,128
599617065634520960,114
599617065642207744,88
599617065649894528,50
599617065657581312,7
599617065665268096,-31
599617065672954880,-57
599617065680641536,-71
599617065688328320,-83
599617065696015104,-93
599617065703701888,-93
599617065711388672,-88
599617065719075456,-88
599617065726762240,-90
599617065734449024,-83
599617065742135808,-78
599617065749822592,-76
599617065757509376,-71
599617065765196160,-66
599617065772882816,-66
599617065780569600,-66
599617065788256384,-57
599617065795943168,-50
599617065803629952,-50
599617065811316736,-47
599617065819003520,-45
599617065826690304,-40
599617065834377088,-35
599617065842063872,-38
599617065849750656,-38
599617065857437440,-33
599617065865124096,-33
599617065872810880,-33
599617065880497664,-31
599617065888184448,-33
599617065895871232,-35
599617065903558016,-31
599617065911244800,-28
599617065918931584,-31
599617065926618368,-33
599617065934305152,-28
599617065941991936,-23
599617065949678720,-26
599617065957365376,-28
599617065965052160,-28
599617065972738944,-23
599617065980425728,-21
599617065988112512,-23
599617065995799296,-23
599617066003486080,-19
599617066011172864,-21
599617066018859648,-23
599617066026546432,-21
599617066034233216,-16
599617066041920000,-19
599617066049606784,-23
599617066057293440,-21
599617066064980224,-14
599617066072667008,-16
599617066080353792,-21
599617066088040620,-28
599617066095727360,-35
599617066103414144,-38
599617066111100928,-21
599617066118787712,0
599617066126474496,9
599617066134161280,14
599617066141848064,11
599617066149534720,-7
599617066157221504,-19
599617066164908288,-11
599617066172595072,-9
599617066180281856,-14
599617066187968640,-14
599617066195655424,-9
599617066203342208,-9
599617066211028992,-9
599617066218715776,-11
599617066226402560,-52
599617066234089344,-179
599617066241776000,-238
599617066249462784,57
599617066257149568,675
599617066264836352,1043
599617066272523136,587
599617066280209920,-241
599617066287896704,-441
599617066295583488,-179
599617066303270272,-95
599617066310957056,-81
599617066318643840,-16
599617066326330624,-21
599617066334017280,-38
599617066341704064,-14
599617066349390848,-7
599617066357077632,-11
599617066364764416,-2
599617066372451200,4
599617066380137984,7
599617066387824768,14
599617066395511552,21
599617066403198336,28
599617066410885120,38
599617066418571904,45
599617066426258560,54
599617066433945344,64
599617066441632128,74
599617066449318912,88
599617066457005696,105
599617066464692480,117
599617066472379264,126
599617066480066048,138
599617066487752832,143
599617066495439616,140
599617066503126400,136
599617066510813184,121
599617066518499840,95
599617066526186624,59
599617066533873408,14
599617066541560192,-26
599617066549246976,-54
599617066556933760,-74
599617066564620544,-90
599617066572307328,-97
599617066579994112,-97
599617066587680896,-100
599617066595367680,-95
599617066603054464,-93
599617066610741120,-93
599617066618427904,-88
599617066626114688,-83
599617066633801472,-81
599617066641488256,-76
599617066649175082,-71
599617066656861824,-69
599617066664548608,-66
599617066672235392,-62
599617066679922176,-57
599617066687608960,-52
599617066695295744,-47
599617066702982528,-47
599617066710669184,-50
599617066718355968,-45
599617066726042752,-42
599617066733729536,-42
599617066741416320,-42
599617066749103104,-40
599617066756789888,-40
599617066764476672,-40
599617066772163456,-40
599617066779850240,-38
599617066787537024,-38
599617066795223808,-40
599617066802910464,-40
599617066810597248,-38
599617066818284032,-33
599617066825970816,-33
599617066833657600,-35
599617066841344384,-31
599617066849031168,-31
599617066856717952,-31
599617066864404736,-31
599617066872091520,-31
599617066879778304,-31
599617066887465088,-28
599617066895151744,-26
599617066902838528,-26
599617066910525312,-26
599617066918212096,-23
599617066925898880,-23
599617066933585664,-26
599617066941272448,-26
599617066948959232,-23
599617066956646016,-23
599617066964332800,-28
599617066972019584,-33
599617066979706368,-42
599617066987393024,-47
599617066995079808,-33
599617067002766592,-11
599617067010453376,2
599617067018140160,11
599617067025826944,14
599617067033513728,-2
599617067041200512,-21
599617067048887296,-19
599617067056574080,-11
599617067064260864,-16
599617067071947648,-16
599617067079634432,-14
599617067087321088,-14
599617067095007872,-14
599617067102694656,-14
599617067110381440,-47
599617067118068224,-160
599617067125755008,-248
599617067133441792,-42
599617067141128576,527
599617067148815360,1024
599617067156502144,795
599617067164188928,2
599617067171875712,-391
599617067179562368,-214
599617067187249152,-85
599617067194935936,-85
599617067202622720,-50
599617067210309552,-38
599617067217996544,-47
599617067225683584,-35
599617067233370624,-21
599617067241057664,-23
599617067248744704,-19
599617067256431744,-9
599617067264118912,-4
599617067271805952,-4
599617067279492992,4
599617067287180032,14
599617067294867072,21
599617067302554112,26
599617067310241152,33
599617067317928192,45
599617067325615232,57
599617067333302272,69
599617067340989440,83
599617067348676480,95
599617067356363520,107
599617067364050560,119
599617067371737600,124
599617067379424640,126
599617067387111680,126
599617067394798720,117
599617067402485760,93
599617067410172800,64
599617067417859840,28
599617067425547008,-11
599617067433234048,-45
599617067440921088,-64
599617067448608128,-78
599617067456295168,-85
599617067463982208,-93
599617067471669248,-93
599617067479356288,-88
599617067487043328,-85
599617067494730368,-83
599617067502417536,-81
599617067510104576,-81
599617067517791616,-76
599617067525478656,-69
599617067533165696,-66
599617067540852736,-62
599617067548539776,-59
599617067556226816,-59
599617067563913856,-54
599617067571600896,-47
599617067579287936,-45
599617067586975104,-45
599617067594662144,-42
599617067602349184,-38
599617067610036224,-35
599617067617723264,-35
599617067625410304,-35
599617067633097344,-35
599617067640784384,-35
599617067648471424,-35
599617067656158464,-31
599617067663845632,-31
599617067671532672,-35
599617067679219712,-35
599617067686906752,-33
599617067694593792,-33
599617067702280832,-31
599617067709967872,-31
599617067717654912,-31
599617067725341952,-31
599617067733028992,-26
599617067740716032,-23
599617067748403200,-26
599617067756090240,-26
599617067763777280,-26
599617067771464362,-23
599617067779151232,-23
599617067786838144,-23
599617067794525056,-23
599617067802211968,-23
599617067809898880,-23
599617067817585792,-21
599617067825272704,-19
599617067832959616,-19
599617067840646528,-21
599617067848333440,-23
599617067856020352,-21
599617067863707264,-19
599617067871394176,-19
599617067879081088,-21
599617067886768000,-23
599617067894454912,-26
599617067902141824,-38
599617067909828736,-42
599617067917515648,-23
599617067925202560,-2
599617067932889472,7
599617067940576384,14
599617067948263296,14
599617067955950208,-7
599617067963637120,-23
599617067971324032,-16
599617067979010944,-9
599617067986697856,-16
599617067994384768,-16
599617068002071680,-11
599617068009758592,-11
599617068017445504,-14
599617068025132416,-19
599617068032819328,-64
599617068040506240,-183
599617068048193152,-224
599617068055880064,71
599617068063566976,659
599617068071253888,1019
599617068078940800,625
599617068086627712,-131
599617068094314624,-363
599617068102001536,-164
599617068109688448,-83
599617068117375360,-78
599617068125062272,-45
599617068132749184,-42
599617068140436096,-47
599617068148123008,-33
599617068155809920,-26
599617068163496832,-26
599617068171183744,-19
599617068178870656,-14
599617068186557568,-9
599617068194244480,0
599617068201931392,7
599617068209618304,11
599617068217305216,19
599617068224992128,26
599617068232679040,33
599617068240365952,42
599617068248052864,57
599617068255739776,69
599617068263426688,78
599617068271113600,90
599617068278800512,102
599617068286487424,114
599617068294174336,119
599617068301861248,119
599617068309548160,117
599617068317235072,107
599617068324921984,85
599617068332609002,52
599617068340295936,14
599617068347982848,-21
599617068355669760,-50
599617068363356672,-71
599617068371043584,-83
599617068378730496,-93
599617068386417408,-97
599617068394104320,-95
599617068401791232,-90
599617068409478144,-90
599617068417165056,-90
599617068424851968,-85
599617068432538880,-78
599617068440225792,-74
599617068447912704,-74
599617068455599616,-69
599617068463286528,-66
599617068470973440,-62
599617068478660352,-57
599617068486347264,-52
599617068494034176,-52
599617068501721088,-47
599617068509408000,-42
599617068517094912,-42
599617068524781824,-40
599617068532468736,-38
599617068540155648,-38
599617068547842560,-40
599617068555529472,-38
599617068563216384,-33
599617068570903296,-33
599617068578590208,-33
599617068586277120,-33
599617068593964032,-38
599617068601650944,-35
599617068609337856,-28
599617068617024768,-31
599617068624711680,-33
599617068632398592,-33
599617068640085504,-28
599617068647772416,-28
599617068655459328,-28
599617068663146240,-26
599617068670833152,-23
599617068678520064,-26
599617068686206976,-26
599617068693893888,-21
599617068701580800,-19
599617068709267712,-21
599617068716954624,-23
599617068724641536,-23
599617068732328448,-19
599617068740015360,-19
599617068747702272,-19
599617068755389184,-16
599617068763076096,-16
599617068770763008,-16
599617068778449920,-19
599617068786136832,-23
599617068793823744,-33
599617068801510656,-38
599617068809197568,-31
599617068816884480,-9
599617068824571392,7
599617068832258304,16
599617068839945216,19
599617068847632128,4
599617068855319040,-14
599617068863005952,-14
599617068870692864,-7
599617068878379776,-9
599617068886066688,-14
599617068893753638,-11
599617068901440640,-9
599617068909127680,-7
599617068916814720,-2
599617068924501760,-31
599617068932188800,-138
599617068939875840,-231
599617068947563008,-50
599617068955250048,489
599617068962937088,984
599617068970624128,788
599617068978311168,-16
599617068985998208,-451
599617068993685248,-255
599617069001372288,-90
599617069009059328,-81
599617069016746368,-33
599617069024433536,-19
599617069032120576,-35
599617069039807616,-19
599617069047494656,-4
599617069055181696,-7
599617069062868736,-2
599617069070555776,7
599617069078242816,11
599617069085929856,19
599617069093616896,21
599617069101303936,28
599617069108991104,35
599617069116678144,45
599617069124365184,54
599617069132052224,69
599617069139739264,78
599617069147426304,85
599617069155113344,100
599617069162800384,117
599617069170487424,131
599617069178174464,140
599617069185861632,148
599617069193548672,150
599617069201235712,150
599617069208922752,138
599617069216609792,117
599617069224296832,88
599617069231983872,47
599617069239670912,0
599617069247357952,-35
599617069255044992,-57
599617069262732032,-71
599617069270419200,-85
599617069278106240,-93
599617069285793280,-88
599617069293480320,-85
599617069301167360,-85
599617069308854400,-83
599617069316541440,-78
599617069324228480,-76
599617069331915520,-69
599617069339602560,-64
599617069347289728,-64
599617069354976768,-59
599617069362663808,-54
599617069370350848,-54
599617069378037888,-47
599617069385724928,-42
599617069393411968,-38
599617069401099008,-35
599617069408786048,-35
599617069416473088,-35
599617069424160256,-33
599617069431847296,-31
599617069439534336,-31
599617069447221376,-33
599617069454908452,-28
599617069462595200,-31
599617069470281984,-33
599617069477968768,-31
599617069485655552,-26
599617069493342336,-28
599617069501029120,-28
599617069508715904,-26
599617069516402560,-26
599617069524089344,-26
599617069531776128,-28
599617069539462912,-23
599617069547149696,-21
599617069554836480,-23
599617069562523264,-23
599617069570210048,-19
599617069577896832,-19
599617069585583616,-21
599617069593270400,-21
599617069600957184,-21
599617069608643840,-21
599617069616330624,-26
599617069624017408,-33
599617069631704192,-45
599617069639390976,-38
599617069647077760,-14
599617069654764544,4
599617069662451328,11
599617069670138112,14
599617069677824896,4
599617069685511680,-14
599617069693198464,-19
599617069700885120,-11
599617069708571904,-14
599617069716258688,-14
599617069723945472,-11
599617069731632256,-11
599617069739319040,-11
599617069747005824,-9
599617069754692608,-21
599617069762379392,-95
599617069770066176,-224
599617069777752960,-176
599617069785439744,269
599617069793126400,881
599617069800813184,979
599617069808499968,272
599617069816186752,-394
599617069823873536,-339
599617069831560320,-117
599617069839247104,-95
599617069846933888,-54
599617069854620672,-16
599617069862307456,-38
599617069869994240,-33
599617069877681024,-11
599617069885367680,-9
599617069893054464,-7
599617069900741248,0
599617069908428032,2
599617069916114816,9
599617069923801600,16
599617069931488384,19
599617069939175168,26
599617069946861952,35
599617069954548736,45
599617069962235520,57
599617069969922304,66
599617069977608960,76
599617069985295744,90
599617069992982528,105
599617070000669312,119
599617070008356096,131
599617070016042914,140
599617070023729664,143
599617070031416448,140
599617070039103232,133
599617070046790016,114
599617070054476800,85
599617070062163584,42
599617070069850368,-2
599617070077537024,-38
599617070085223808,-64
599617070092910592,-83
599617070100597376,-90
599617070108284160,-93
599617070115970944,-95
599617070123657728,-97
599617070131344512,-93
599617070139031296,-90
599617070146718080,-88
599617070154404864,-83
599617070162091648,-81
599617070169778304,-78
599617070177465088,-71
599617070185151872,-66
599617070192838656,-66
599617070200525440,-62
599617070208212224,-57
599617070215899008,-52
599617070223585792,-50
599617070231272576,-45
599617070238959360,-40
599617070246646144,-38
599617070254332928,-35
599617070262019584,-33
599617070269706368,-33
599617070277393152,-35
599617070285079936,-35
599617070292766720,-35
599617070300453504,-38
599617070308140288,-35
599617070315827072,-33
599617070323513856,-33
599617070331200640,-33
599617070338887424,-33
599617070346574208,-31
599617070354260864,-28
599617070361947648,-31
599617070369634432,-31
599617070377321216,-28
599617070385008000,-26
599617070392694784,-26
599617070400381568,-26
599617070408068352,-23
599617070415755136,-23
599617070423441920,-23
599617070431128704,-23
599617070438815488,-21
599617070446502272,-21
599617070454188928,-23
599617070461875712,-21
599617070469562496,-21
599617070477249280,-28
599617070484936064,-38
599617070492622848,-45
599617070500309632,-38
599617070507996416,-14
599617070515683200,2
599617070523369984,9
599617070531056768,14
599617070538743552,9
599617070546430208,-11
599617070554116992,-21
599617070561803776,-14
599617070569490560,-16
599617070577177384,-19
599617070584864384,-14
599617070592551424,-14
599617070600238464,-16
599617070607925504,-14
599617070615612544,-19
599617070623299584,-85
599617070630986752,-217
599617070638673792,-203
599617070646360832,186
599617070654047872,797
599617070661734912,1017
599617070669421952,446
599617070677108992,-267
599617070684796032,-336
599617070692483072,-124
599617070700170112,-85
599617070707857280,-71
599617070715544320,-38
599617070723231360,-45
599617070730918400,-45
599617070738605440,-28
599617070746292480,-21
599617070753979520,-23
599617070761666560,-14
599617070769353600,-7
599617070777040640,-4
599617070784727680,0
599617070792414848,9
599617070800101888,16
599617070807788928,23
599617070815475968,31
599617070823163008,40
599617070830850048,50
599617070838537088,62
599617070846224128,74
599617070853911168,88
599617070861598208,100
599617070869285376,114
599617070876972416,124
599617070884659456,128
599617070892346496,126
599617070900033536,124
599617070907720576,109
599617070915407616,83
599617070923094656,47
599617070930781696,7
599617070938468736,-31
599617070946155776,-54
599617070953842944,-71
599617070961529984,-85
599617070969217024,-93
599617070976904064,-95
599617070984591104,-93
599617070992278144,-88
599617070999965184,-88
599617071007652224,-85
599617071015339264,-83
599617071023026304,-78
599617071030713472,-74
599617071038400512,-71
599617071046087552,-69
599617071053774592,-66
599617071061461632,-59
599617071069148672,-52
599617071076835712,-50
599617071084522752,-50
599617071092209792,-47
599617071099896832,-42
599617071107583872,-40
599617071115271040,-38
599617071122958080,-38
599617071130645120,-38
599617071138332194,-35
599617071146018816,-35
599617071153705472,-35
599617071161392256,-35
599617071169078912,-35
599617071176765568,-35
599617071184452352,-31
599617071192139008,-33
599617071199825792,-35
599617071207512448,-33
599617071215199104,-33
599617071222885888,-31
599617071230572544,-26
599617071238259200,-28
599617071245945984,-33
599617071253632640,-31
599617071261319424,-28
599617071269006080,-23
599617071276692736,-23
599617071284379520,-26
599617071292066176,-26
599617071299752832,-21
599617071307439616,-23
599617071315126272,-23
599617071322813056,-19
599617071330499712,-19
599617071338186368,-28
599617071345873152,-31
599617071353559808,-33
599617071361246464,-40
599617071368933248,-38
599617071376619904,-19
599617071384306688,0
599617071391993344,9
599617071399680000,14
599617071407366784,4
599617071415053440,-9
599617071422740096,-16
599617071430426880,-19
599617071438113536,-19
599617071445800320,-16
599617071453486976,-14
599617071461173632,-14
599617071468860416,-14
599617071476547072,-11
599617071484233728,-21
599617071491920512,-83
599617071499607168,-205
599617071507293952,-188
599617071514980608,195
599617071522667264,792
599617071530354048,991
599617071538040704,396
599617071545727360,-322
599617071553414144,-370
599617071561100800,-136
599617071568787584,-88
599617071576474240,-66
599617071584160896,-26
599617071591847680,-38
599617071599534336,-40
599617071607220992,-21
599617071614907776,-14
599617071622594432,-16
599617071630281216,-16
599617071637967872,-11
599617071645654528,-2
599617071653341312,7
599617071661027968,14
599617071668714624,23
599617071676401408,28
599617071684088064,38
599617071691774848,50
599617071699461573,64
599617071707148672,74
599617071714835712,81
599617071722522624,97
599617071730209664,112
599617071737896576,119
599617071745583616,133
599617071753270528,145
599617071760957568,140
599617071768644480,131
599617071776331520,119
599617071784018560,97
599617071791705472,52
599617071799392512,4
599617071807079424,-28
599617071814766464,-54
599617071822453376,-74
599617071830140416,-85
599617071837827328,-93
599617071845514368,-100
599617071853201280,-97
599617071860888320,-90
599617071868575360,-90
599617071876262272,-88
599617071883949312,-83
599617071891636224,-78
599617071899323264,-71
599617071907010176,-69
599617071914697216,-69
599617071922384128,-64
599617071930071168,-62
599617071937758208,-64
599617071945445120,-57
599617071953132160,-47
599617071960819072,-45
599617071968506112,-45
599617071976193024,-38
599617071983880064,-35
599617071991566976,-35
599617071999254016,-33
599617072006940928,-35
599617072014627968,-38
599617072022315008,-38
599617072030001920,-35
599617072037688960,-35
599617072045375872,-35
599617072053062912,-31
599617072060749824,-31
599617072068436864,-28
599617072076123776,-31
599617072083810816,-28
599617072091497856,-23
599617072099184768,-26
599617072106871808,-26
599617072114558720,-23
599617072122245760,-26
599617072129932672,-26
599617072137619712,-21
599617072145306624,-26
599617072152993664,-23
599617072160680704,-21
599617072168367616,-26
599617072176054656,-33
599617072183741568,-42
599617072191428608,-45
599617072199115520,-21
599617072206802560,2
599617072214489472,4
599617072222176512,7
599617072229863424,4
599617072237550464,-11
599617072245237504,-21
599617072252924416,-14
599617072260611300,-11
599617072268298112,-16
599617072275984896,-14
599617072283671680,-14
599617072291358464,-14
599617072299045248,-11
599617072306732032,-14
599617072314418816,-62
599617072322105472,-191
599617072329792256,-231
599617072337479040,88
599617072345165824,704
599617072352852608,1027
599617072360539392,515
599617072368226176,-298
599617072375912960,-437
599617072383599744,-164
599617072391286528,-97
599617072398973312,-81
599617072406660096,-16
599617072414346752,-21
599617072422033536,-33
599617072429720320,-11
599617072437407104,-7
599617072445093888,-11
599617072452780672,0
599617072460467456,11
599617072468154240,14
599617072475841024,16
599617072483527808,26
599617072491214592,33
599617072498901376,38
599617072506588032,50
599617072514274816,59
599617072521961600,71
599617072529648384,85
599617072537335168,100
599617072545021952,114
599617072552708736,131
599617072560395520,140
599617072568082304,148
599617072575769088,152
599617072583455872,150
599617072591142656,145
599617072598829312,133
599617072606516096,109
599617072614202880,64
599617072621889664,16
599617072629576448,-21
599617072637263232,-57
599617072644950016,-83
599617072652636800,-90
599617072660323584,-95
599617072668010368,-102
599617072675697152,-97
599617072683383936,-93
599617072691070592,-93
599617072698757376,-90
599617072706444160,-85
599617072714130944,-81
599617072721817728,-78
599617072729504512,-74
599617072737191296,-69
599617072744878080,-64
599617072752564864,-59
599617072760251648,-54
599617072767938432,-52
599617072775625216,-50
599617072783312000,-47
599617072790998656,-40
599617072798685440,-38
599617072806372224,-40
599617072814059008,-40
599617072821745766,-38
599617072829432576,-38
599617072837119360,-38
599617072844806144,-35
599617072852492928,-35
599617072860179712,-33
599617072867866496,-33
599617072875553280,-33
599617072883239936,-33
599617072890926720,-31
599617072898613504,-31
599617072906300288,-33
599617072913987072,-31
599617072921673856,-26
599617072929360640,-26
599617072937047424,-26
599617072944734208,-26
599617072952420992,-28
599617072960107776,-28
599617072967794560,-23
599617072975481216,-23
599617072983168000,-26
599617072990854784,-28
599617072998541568,-33
599617073006228352,-42
599617073013915136,-47
599617073021601920,-33
599617073029288704,-7
599617073036975488,4
599617073044662272,9
599617073052349056,11
599617073060035840,-2
599617073067722496,-21
599617073075409280,-21
599617073083096064,-11
599617073090782848,-16
599617073098469632,-19
599617073106156416,-14
599617073113843200,-16
599617073121529984,-19
599617073129216768,-11
599617073136903552,-31
599617073144590336,-131
599617073152277120,-246
599617073159963776,-105
599617073167650560,425
599617073175337344,988
599617073183024128,888
599617073190710912,83
599617073198397696,-432
599617073206084480,-269
599617073213771264,-93
599617073221458048,-93
599617073229144832,-50
599617073236831616,-28
599617073244518400,-47
599617073252205056,-33
599617073259891840,-14
599617073267578624,-19
599617073275265408,-19
599617073282952192,-7
599617073290638976,0
599617073298325760,2
599617073306012544,11
599617073313699328,19
599617073321386112,26
599617073329072896,33
599617073336759680,42
599617073344446336,52
599617073352133120,64
599617073359819904,76
599617073367506688,88
599617073375193472,102
599617073382880228,119
599617073390567424,131
599617073398254592,136
599617073405941632,138
599617073413628800,136
599617073421315968,126
599617073429003008,105
599617073436690176,74
599617073444377216,28
599617073452064384,-11
599617073459751552,-45
599617073467438592,-69
599617073475125760,-85
599617073482812928,-95
599617073490499968,-95
599617073498187136,-93
599617073505874304,-93
599617073513561344,-90
599617073521248512,-85
599617073528935680,-83
599617073536622720,-81
599617073544309888,-76
599617073551996928,-76
599617073559684096,-74
599617073567371264,-66
599617073575058304,-62
599617073582745472,-59
599617073590432640,-54
599617073598119680,-50
599617073605806848,-47
599617073613494016,-45
599617073621181056,-40
599617073628868224,-35
599617073636555264,-35
599617073644242432,-35
599617073651929600,-33
599617073659616640,-33
599617073667303808,-35
599617073674990976,-35
599617073682678016,-33
599617073690365184,-33
599617073698052352,-35
599617073705739392,-33
599617073713426560,-31
599617073721113728,-31
599617073728800768,-31
599617073736487936,-28
599617073744174976,-28
599617073751862144,-26
599617073759549312,-26
599617073767236352,-28
599617073774923520,-26
599617073782610688,-21
599617073790297728,-23
599617073797984896,-23
599617073805672064,-23
599617073813359104,-21
599617073821046272,-21
599617073828733312,-19
599617073836420480,-21
599617073844107648,-21
599617073851794688,-19
599617073859481856,-16
599617073867169024,-21
599617073874856064,-21
599617073882543232,-16
599617073890230400,-19
599617073897917440,-28
599617073905604608,-38
599617073913291776,-42
599617073920978816,-28
599617073928665984,-4
599617073936353024,7
599617073944040129,14
599617073951726976,19
599617073959413760,4
599617073967100672,-14
599617073974787456,-16
599617073982474368,-11
599617073990161152,-14
599617073997848064,-14
599617074005534848,-11
599617074013221760,-11
599617074020908544,-11
599617074028595456,-14
599617074036282240,-28
599617074043969152,-119
599617074051655936,-241
599617074059342720,-133
599617074067029632,363
599617074074716416,943
599617074082403328,950
599617074090090112,236
599617074097777024,-336
599617074105463808,-267
599617074113150720,-93
599617074120837504,-90
599617074128524416,-66
599617074136211200,-38
599617074143898112,-47
599617074151584896,-45
599617074159271680,-28
599617074166958592,-26
599617074174645376,-23
599617074182332288,-16
599617074190019072,-11
599617074197705984,-4
599617074205392768,2
599617074213079680,7
599617074220766464,11
599617074228453376,19
599617074236140160,28
599617074243827072,38
599617074251513856,45
599617074259200640,59
599617074266887552,76
599617074274574336,88
599617074282261248,97
599617074289948032,109
599617074297634944,119
599617074305321728,124
599617074313008640,121
599617074320695424,117
599617074328382336,100
599617074336069120,74
599617074343756032,38
599617074351442816,0
599617074359129728,-33
599617074366816512,-57
599617074374503296,-76
599617074382190208,-88
599617074389876992,-93
599617074397563904,-95
599617074405250688,-95
599617074412937600,-93
599617074420624384,-88
599617074428311296,-85
599617074435998080,-81
599617074443684992,-76
599617074451371776,-71
599617074459058688,-69
599617074466745472,-66
599617074474432256,-64
599617074482119168,-59
599617074489805952,-54
599617074497492864,-52
599617074505179682,-50
599617074512866688,-47
599617074520553728,-42
599617074528240640,-38
599617074535927680,-35
599617074543614592,-35
599617074551301632,-35
599617074558988544,-33
599617074566675584,-35
599617074574362496,-35
599617074582049536,-35
599617074589736576,-33
599617074597423488,-33
599617074605110528,-33
599617074612797440,-35
599617074620484480,-35
599617074628171392,-31
599617074635858432,-28
599617074643545344,-31
599617074651232384,-31
599617074658919296,-28
599617074666606336,-28
599617074674293376,-28
599617074681980288,-23
599617074689667328,-26
599617074697354240,-28
599617074705041280,-23
599617074712728192,-21
599617074720415232,-23
599617074728102144,-26
599617074735789184,-23
599617074743476224,-23
599617074751163136,-23
599617074758850176,-23
599617074766537088,-21
599617074774224128,-19
599617074781911040,-19
599617074789598080,-19
599617074797284992,-19
599617074804972032,-19
599617074812658944,-19
599617074820345984,-21
599617074828033024,-23
599617074835719936,-28
599617074843406976,-38
599617074851093888,-40
599617074858780928,-21
599617074866467840,-2
599617074874154880,9
599617074881841792,19
599617074889528832,11
599617074897215872,-9
599617074904902784,-19
599617074912589824,-14
599617074920276736,-11
599617074927963776,-11
599617074935650688,-14
599617074943337728,-14
599617074951024640,-11
599617074958711680,-11
599617074966398592,-19
599617074974085632,-66
599617074981772672,-186
599617074989459584,-219
599617074997146624,97
599617075004833536,699
599617075012520576,1031
599617075020207488,573
599617075027894528,-210
599617075035581440,-401
599617075043268480,-167
599617075050955520,-88
599617075058642432,-78
599617075066329405,-38
599617075074016384,-42
599617075081703424,-50
599617075089390336,-26
599617075097077376,-16
599617075104764288,-21
599617075112451328,-16
599617075120138240,-4
599617075127825280,0
599617075135512192,2
599617075143199232,7
599617075150886272,11
599617075158573184,23
599617075166260224,33
599617075173947136,40
599617075181634176,50
599617075189321088,62
599617075197008128,76
599617075204695040,90
599617075212382080,102
599617075220068992,114
599617075227756032,124
599617075235443072,128
599617075243129984,131
599617075250817024,128
599617075258503936,119
599617075266190976,97
599617075273877888,64
599617075281564928,23
599617075289251840,-16
599617075296938880,-50
599617075304625920,-71
599617075312312832,-88
599617075319999872,-95
599617075327686784,-102
599617075335373824,-105
599617075343060736,-100
599617075350747776,-95
599617075358434688,-93
599617075366121728,-93
599617075373808640,-88
599617075381495680,-81
599617075389182720,-76
599617075396869632,-74
599617075404556672,-71
599617075412243584,-66
599617075419930624,-62
599617075427617536,-62
599617075435304576,-59
599617075442991488,-52
599617075450678528,-47
599617075458365568,-47
599617075466052480,-47
599617075473739520,-42
599617075481426432,-40
599617075489113472,-38
599617075496800384,-40
599617075504487424,-42
599617075512174336,-38
599617075519861376,-35
599617075527548416,-40
599617075535235328,-42
599617075542922368,-38
599617075550609280,-35
599617075558296320,-33
599617075565983232,-33
599617075573670272,-33
599617075581357184,-33
599617075589044224,-31
599617075596731136,-28
599617075604418176,-28
599617075612105216,-31
599617075619792128,-26
599617075627479132,-23
599617075635165952,-26
599617075642852736,-28
599617075650539648,-28
599617075658226432,-28
599617075665913344,-26
599617075673600128,-26
599617075681287040,-26
599617075688973824,-31
599617075696660736,-35
599617075704347520,-42
599617075712034432,-35
599617075719721216,-14
599617075727408128,0
599617075735094912,7
599617075742781696,11
599617075750468608,-2
599617075758155392,-19
599617075765842304,-21
599617075773529088,-16
599617075781216000,-11
599617075788902784,-14
599617075796589696,-16
599617075804276480,-16
599617075811963392,-19
599617075819650176,-16
599617075827337088,-23
599617075835023872,-95
599617075842710656,-224
599617075850397568,-183
599617075858084352,253
599617075865771264,862
599617075873458048,979
599617075881144960,284
599617075888831744,-406
599617075896518656,-360
599617075904205440,-124
599617075911892352,-102
599617075919579136,-66
599617075927266048,-16
599617075934952832,-38
599617075942639616,-35
599617075950326528,-11
599617075958013312,-14
599617075965700224,-14
599617075973387008,-2
599617075981073920,2
599617075988760704,7
599617075996447616,11
599617076004134400,19
599617076011821312,26
599617076019508096,33
599617076027195008,42
599617076034881792,54
599617076042568576,64
599617076050255488,76
599617076057942272,93
599617076065629184,107
599617076073315968,119
599617076081002880,133
599617076088689664,143
599617076096376576,148
599617076104063360,148
599617076111750272,140
599617076119437056,119
599617076127123968,90
599617076134810752,52
599617076142497536,7
599617076150184448,-35
599617076157871232,-64
599617076165558144,-81
599617076173244928,-95
599617076180931840,-102
599617076188618681,-102
599617076196305792,-100
599617076203992960,-95
599617076211680000,-95
599617076219367168,-93
599617076227054336,-88
599617076234741376,-81
599617076242428544,-81
599617076250115584,-78
599617076257802752,-74
599617076265489920,-69
599617076273176960,-64
599617076280864128,-59
599617076288551296,-54
599617076296238336,-50
599617076303925504,-47
599617076311612672,-45
599617076319299712,-42
599617076326986880,-42
599617076334674048,-42
599617076342361088,-38
599617076350048256,-35
599617076357735296,-35
599617076365422464,-38
599617076373109632,-38
599617076380796672,-35
599617076388483840,-33
599617076396171008,-35
599617076403858048,-35
599617076411545216,-35
599617076419232384,-33
599617076426919424,-31
599617076434606592,-31
599617076442293632,-31
599617076449980800,-31
599617076457667968,-31
599617076465355008,-28
599617076473042176,-26
599617076480729344,-26
599617076488416384,-26
599617076496103552,-26
599617076503790720,-23
599617076511477760,-26
599617076519164928,-26
599617076526852096,-23
599617076534539136,-23
599617076542226304,-23
599617076549913344,-21
599617076557600512,-21
599617076565287680,-19
599617076572974720,-21
599617076580661888,-21
599617076588349056,-21
599617076596036096,-19
599617076603723264,-21
599617076611410432,-26
599617076619097472,-33
599617076626784640,-42
599617076634471680,-45
599617076642158848,-26
599617076649846016,-2
599617076657533056,9
599617076665220224,14
599617076672907392,11
599617076680594432,-9
599617076688281600,-23
599617076695968768,-16
599617076703655808,-11
599617076711342976,-16
599617076719030144,-14
599617076726717184,-14
599617076734404352,-14
599617076742091392,-11
599617076749778582,-14
599617076757465344,-54
599617076765152128,-171
599617076772838912,-243
599617076780525696,7
599617076788212480,604
599617076795899264,1055
599617076803586048,742
599617076811272704,-64
599617076818959488,-386
599617076826646272,-191
599617076834333056,-85
599617076842019840,-88
599617076849706624,-50
599617076857393408,-40
599617076865080192,-50
599617076872766976,-35
599617076880453760,-26
599617076888140544,-23
599617076895827328,-19
599617076903513984,-14
599617076911200768,-9
599617076918887552,-2
599617076926574336,4
599617076934261120,9
599617076941947904,16
599617076949634688,23
599617076957321472,33
599617076965008256,42
599617076972695040,54
599617076980381824,64
599617076988068608,76
599617076995755264,88
599617077003442048,102
599617077011128832,117
599617077018815616,121
599617077026502400,124
599617077034189184,121
599617077041875968,114
599617077049562752,97
599617077057249536,69
599617077064936320,31
599617077072623104,-4
599617077080309888,-35
599617077087996544,-62
599617077095683328,-78
599617077103370112,-85
599617077111056896,-90
599617077118743680,-90
599617077126430464,-88
599617077134117248,-85
599617077141804032,-83
599617077149490816,-81
599617077157177600,-78
599617077164864384,-76
599617077172551168,-71
599617077180237824,-66
599617077187924608,-62
599617077195611392,-59
599617077203298176,-57
599617077210984960,-54
599617077218671744,-50
599617077226358528,-45
599617077234045312,-42
599617077241732096,-40
599617077249418880,-38
599617077257105664,-35
599617077264792448,-35
599617077272479232,-33
599617077280165888,-33
599617077287852672,-35
599617077295539456,-33
599617077303226240,-31
599617077310913048,-33
599617077318600064,-33
599617077326287104,-33
599617077333974144,-31
599617077341661184,-31
599617077349348224,-28
599617077357035264,-26
599617077364722432,-26
599617077372409472,-23
599617077380096512,-23
599617077387783552,-26
599617077395470592,-21
599617077403157632,-19
599617077410844672,-21
599617077418531712,-21
599617077426218752,-19
599617077433905792,-16
599617077441592960,-19
599617077449280000,-19
599617077456967040,-19
599617077464654080,-19
599617077472341120,-16
599617077480028160,-16
599617077487715200,-16
599617077495402240,-16
599617077503089280,-14
599617077510776320,-16
599617077518463360,-14
599617077526150528,-14
599617077533837568,-16
599617077541524608,-14
599617077549211648,-16
599617077556898688,-21
599617077564585728,-28
599617077572272768,-38
599617077579959808,-33
599617077587646848,-11
599617077595333888,7
599617077603021056,14
599617077610708096,19
599617077618395136,11
599617077626082176,-9
599617077633769216,-19
599617077641456256,-11
599617077649143296,-14
599617077656830336,-19
599617077664517376,-14
599617077672204416,-9
599617077679891456,-11
599617077687578624,-14
599617077695265664,-23
599617077702952704,-88
599617077710639744,-214
599617077718326784,-198
599617077726013824,193
599617077733700864,797
599617077741387904,1017
599617077749074944,456
599617077756761984,-253
599617077764449152,-332
599617077772136192,-126
599617077779823232,-85
599617077787510272,-76
599617077795197312,-40
599617077802884352,-47
599617077810571392,-50
599617077818258432,-28
599617077825945472,-19
599617077833632512,-19
599617077841319552,-11
599617077849006720,-7
599617077856693760,-2
599617077864380800,7
599617077872067858,14
599617077879754496,19
599617077887441152,26
599617077895127936,33
599617077902814592,42
599617077910501248,54
599617077918188032,66
599617077925874688,78
599617077933561472,93
599617077941248128,105
599617077948934784,119
599617077956621568,128
599617077964308224,133
599617077971994880,133
599617077979681664,131
599617077987368320,119
599617077995055104,97
599617078002741760,66
599617078010428416,23
599617078018115200,-16
599617078025801856,-42
599617078033488512,-64
599617078041175296,-78
599617078048861952,-88
599617078056548736,-93
599617078064235392,-93
599617078071922048,-93
599617078079608832,-88
599617078087295488,-85
599617078094982144,-83
599617078102668928,-78
599617078110355584,-71
599617078118042368,-71
599617078125729024,-71
599617078133415680,-64
599617078141102464,-59
599617078148789120,-62
599617078156475776,-57
599617078164162560,-45
599617078171849216,-42
599617078179536000,-42
599617078187222656,-40
599617078194909312,-35
599617078202596096,-31
599617078210282752,-33
599617078217969408,-38
599617078225656192,-35
599617078233342848,-31
599617078241029632,-28
599617078248716288,-31
599617078256402944,-31
599617078264089728,-28
599617078271776384,-28
599617078279463040,-31
599617078287149824,-33
599617078294836480,-31
599617078302523264,-23
599617078310209920,-23
599617078317896576,-26
599617078325583360,-23
599617078333270016,-23
599617078340956672,-23
599617078348643456,-21
599617078356330112,-23
599617078364016896,-23
599617078371703552,-19
599617078379390208,-21
599617078387076992,-26
599617078394763648,-19
599617078402450304,-14
599617078410137088,-19
599617078417823744,-21
599617078425510528,-19
599617078433197237,-21
599617078440884224,-26
599617078448571264,-33
599617078456258176,-38
599617078463945216,-31
599617078471632128,-9
599617078479319168,9
599617078487006080,19
599617078494693120,16
599617078502380032,0
599617078510067072,-19
599617078517754112,-21
599617078525441024,-14
599617078533128064,-11
599617078540814976,-14
599617078548502016,-14
599617078556188928,-7
599617078563875968,-7
599617078571562880,-11
599617078579249920,-33
599617078586936832,-128
599617078594623872,-241
599617078602310912,-78
599617078609997824,472
599617078617684864,993
599617078625371776,802
599617078633058816,-31
599617078640745728,-477
599617078648432768,-265
599617078656119680,-97
599617078663806720,-93
599617078671493760,-28
599617078679180672,-11
599617078686867712,-40
599617078694554624,-21
599617078702241664,-2
599617078709928576,-7
599617078717615616,-2
599617078725302528,7
599617078732989568,11
599617078740676480,16
599617078748363520,26
599617078756050560,31
599617078763737472,38
599617078771424512,47
599617078779111424,54
599617078786798464,66
599617078794485376,78
599617078802172416,88
599617078809859328,105
599617078817546368,121
599617078825233408,133
599617078832920320,148
599617078840607360,157
599617078848294272,160
599617078855981312,162
599617078863668224,152
599617078871355264,128
599617078879042176,100
599617078886729216,52
599617078894416256,0
599617078902103168,-33
599617078909790208,-59
599617078917477120,-83
599617078925164160,-97
599617078932851072,-102
599617078940538112,-100
599617078948225024,-97
599617078955912064,-93
599617078963598976,-95
599617078971286016,-97
599617078978973056,-90
599617078986659968,-81
599617078994346964,-83
599617079002033792,-81
599617079009720576,-74
599617079017407488,-66
599617079025094272,-66
599617079032781184,-62
599617079040467968,-54
599617079048154880,-52
599617079055841664,-52
599617079063528576,-45
599617079071215360,-42
599617079078902272,-45
599617079086589056,-45
599617079094275968,-42
599617079101962752,-40
599617079109649536,-38
599617079117336448,-38
599617079125023232,-38
599617079132710144,-38
599617079140396928,-35
599617079148083840,-33
599617079155770624,-35
599617079163457536,-35
599617079171144320,-33
599617079178831232,-35
599617079186518016,-35
599617079194204928,-33
599617079201891712,-33
599617079209578496,-33
599617079217265408,-33
599617079224952192,-31
599617079232639104,-28
599617079240325888,-28
599617079248012800,-28
599617079255699584,-28
599617079263386496,-31
599617079271073280,-38
599617079278760192,-47
599617079286446976,-50
599617079294133888,-33
599617079301820672,-9
599617079309507456,-2
599617079317194368,4
599617079324881152,7
599617079332568064,-9
599617079340254848,-28
599617079347941760,-19
599617079355628544,-11
599617079363315456,-16
599617079371002240,-21
599617079378689152,-21
599617079386375936,-16
599617079394062848,-14
599617079401749632,-16
599617079409436416,-42
599617079417123328,-152
599617079424810112,-255
599617079432497024,-66
599617079440183808,501
599617079447870720,1024
599617079455557504,809
599617079463244416,-38
599617079470931200,-463
599617079478618112,-246
599617079486304896,-97
599617079493991808,-100
599617079501678592,-42
599617079509365376,-23
599617079517052288,-45
599617079524739072,-28
599617079532425984,-14
599617079540112768,-21
599617079547799680,-16
599617079555486513,-2
599617079563173120,2
599617079570859776,7
599617079578546560,9
599617079586233216,16
599617079593919872,23
599617079601606656,33
599617079609293312,40
599617079616980096,52
599617079624666752,64
599617079632353408,76
599617079640040192,90
599617079647726848,107
599617079655413504,124
599617079663100288,136
599617079670786944,143
599617079678473728,145
599617079686160384,145
599617079693847040,136
599617079701533824,114
599617079709220480,81
599617079716907136,33
599617079724593920,-14
599617079732280576,-50
599617079739967360,-76
599617079747654016,-93
599617079755340672,-102
599617079763027456,-105
599617079770714112,-105
599617079778400768,-102
599617079786087552,-100
599617079793774208,-95
599617079801460992,-93
599617079809147648,-90
599617079816834304,-88
599617079824521088,-81
599617079832207744,-76
599617079839894400,-76
599617079847581184,-69
599617079855267840,-66
599617079862954624,-64
599617079870641280,-57
599617079878327936,-52
599617079886014720,-50
599617079893701376,-42
599617079901388032,-40
599617079909074816,-40
599617079916761472,-40
599617079924448256,-38
599617079932134912,-38
599617079939821568,-38
599617079947508352,-38
599617079955195008,-35
599617079962881664,-35
599617079970568448,-35
599617079978255104,-33
599617079985941888,-31
599617079993628544,-33
599617080001315200,-33
599617080009001984,-31
599617080016688640,-28
599617080024375296,-28
599617080032062080,-28
599617080039748736,-28
599617080047435520,-26
599617080055122176,-26
599617080062808832,-26
599617080070495616,-26
599617080078182272,-23
599617080085868928,-21
599617080093555712,-21
599617080101242368,-21
599617080108929152,-21
599617080116615892,-19
599617080124303104,-19
599617080131990272,-19
599617080139677312,-21
599617080147364480,-23
599617080155051648,-26
599617080162738688,-31
599617080170425856,-42
599617080178112896,-42
599617080185800064,-21
599617080193487232,2
599617080201174272,9
599617080208861440,14
599617080216548608,11
599617080224235648,-7
599617080231922816,-19
599617080239609984,-14
599617080247297024,-9
599617080254984192,-11
599617080262671360,-11
599617080270358400,-11
599617080278045568,-11
599617080285732608,-9
599617080293419776,-11
599617080301106944,-54
599617080308793984,-179
599617080316481152,-243
599617080324168320,26
599617080331855360,632
599617080339542528,1065
599617080347229696,721
599617080354916736,-81
599617080362603904,-370
599617080370290944,-174
599617080377978112,-85
599617080385665280,-85
599617080393352320,-47
599617080401039488,-40
599617080408726656,-47
599617080416413696,-35
599617080424100864,-28
599617080431788032,-28
599617080439475072,-19
599617080447162240,-11
599617080454849408,-9
599617080462536448,-2
599617080470223616,2
599617080477910656,7
599617080485597824,14
599617080493284992,23
599617080500972032,31
599617080508659200,40
599617080516346368,52
599617080524033408,66
599617080531720576,76
599617080539407744,93
599617080547094784,109
599617080554781952,119
599617080562468992,126
599617080570156160,133
599617080577843328,131
599617080585530368,119
599617080593217536,102
599617080600904704,74
599617080608591744,31
599617080616278912,-11
599617080623966080,-42
599617080631653120,-69
599617080639340288,-85
599617080647027456,-93
599617080654714496,-95
599617080662401664,-95
599617080670088704,-93
599617080677775793,-90
599617080685462912,-88
599617080693150080,-85
599617080700837120,-81
599617080708524288,-78
599617080716211456,-76
599617080723898496,-71
599617080731585664,-66
599617080739272704,-64
599617080746959872,-62
599617080754647040,-54
599617080762334080,-50
599617080770021248,-47
599617080777708416,-42
599617080785395456,-38
599617080793082624,-35
599617080800769792,-35
599617080808456832,-33
599617080816144000,-33
599617080823831168,-33
599617080831518208,-31
599617080839205376,-31
599617080846892416,-31
599617080854579584,-31
599617080862266752,-31
599617080869953792,-31
599617080877640960,-28
599617080885328128,-26
599617080893015168,-28
599617080900702336,-26
599617080908389504,-23
599617080916076544,-26
599617080923763712,-26
599617080931450752,-21
599617080939137920,-19
599617080946825088,-23
599617080954512128,-21
599617080962199296,-19
599617080969886464,-19
599617080977573504,-21
599617080985260672,-19
599617080992947840,-16
599617081000634880,-16
599617081008322048,-16
599617081016009216,-16
599617081023696256,-14
599617081031383424,-14
599617081039070464,-16
599617081046757632,-16
599617081054444800,-14
599617081062131840,-16
599617081069819008,-19
599617081077506176,-23
599617081085193216,-33
599617081092880384,-38
599617081100567552,-21
599617081108254592,2
599617081115941760,11
599617081123628800,19
599617081131315968,19
599617081139003136,2
599617081146690176,-16
599617081154377344,-14
599617081162064512,-7
599617081169751552,-9
599617081177438720,-11
599617081185125888,-9
599617081192812928,-9
599617081200500096,-9
599617081208187136,-9
599617081215874304,-38
599617081223561472,-145
599617081231248512,-236
599617081238935690,-42
599617081246622592,503
599617081254309504,1000
599617081261996416,816
599617081269683328,52
599617081277370240,-365
599617081285057152,-217
599617081292744064,-85
599617081300430976,-83
599617081308117888,-50
599617081315804800,-38
599617081323491712,-47
599617081331178624,-33
599617081338865536,-19
599617081346552448,-21
599617081354239360,-16
599617081361926272,-7
599617081369613184,-4
599617081377300096,2
599617081384987008,9
599617081392673920,14
599617081400360832,21
599617081408047744,28
599617081415734656,35
599617081423421568,45
599617081431108480,57
599617081438795392,71
599617081446482304,83
599617081454169216,100
599617081461856128,114
599617081469543040,124
599617081477229952,131
599617081484916864,138
599617081492603776,136
599617081500290688,128
599617081507977600,119
599617081515664512,90
599617081523351424,47
599617081531038336,4
599617081538725248,-33
599617081546412160,-59
599617081554099072,-76
599617081561785984,-85
599617081569472896,-90
599617081577159808,-95
599617081584846720,-90
599617081592533632,-88
599617081600220544,-88
599617081607907456,-85
599617081615594368,-81
599617081623281280,-76
599617081630968192,-74
599617081638655104,-71
599617081646342016,-69
599617081654028928,-66
599617081661715840,-62
599617081669402752,-54
599617081677089664,-47
599617081684776576,-47
599617081692463488,-47
599617081700150400,-45
599617081707837312,-38
599617081715524224,-33
599617081723211136,-35
599617081730898048,-38
599617081738584960,-35
599617081746271872,-33
599617081753958784,-33
599617081761645696,-33
599617081769332608,-33
599617081777019520,-33
599617081784706432,-33
599617081792393344,-31
599617081800080330,-28
599617081807767296,-28
599617081815454208,-28
599617081823141120,-31
599617081830828032,-31
599617081838514944,-28
599617081846201856,-28
599617081853888768,-26
599617081861575680,-23
599617081869262592,-23
599617081876949504,-28
599617081884636416,-26
599617081892323328,-21
599617081900010240,-21
599617081907697152,-23
599617081915384064,-21
599617081923070976,-21
599617081930757888,-21
599617081938444800,-21
599617081946131712,-19
599617081953818624,-16
599617081961505536,-16
599617081969192448,-21
599617081976879360,-23
599617081984566272,-23
599617081992253184,-31
599617081999940096,-40
599617082007627008,-42
599617082015313920,-26
599617082023000832,-2
599617082030687744,7
599617082038374656,7
599617082046061568,7
599617082053748480,-2
599617082061435392,-16
599617082069122304,-21
599617082076809216,-19
599617082084496128,-16
599617082092183040,-14
599617082099869952,-11
599617082107556864,-14
599617082115243776,-16
599617082122930688,-16
599617082130617600,-38
599617082138304512,-136
599617082145991424,-241
599617082153678336,-76
599617082161365248,470
599617082169052160,996
599617082176739072,816
599617082184425984,-7
599617082192112896,-463
599617082199799808,-265
599617082207486720,-102
599617082215173632,-100
599617082222860544,-40
599617082230547456,-16
599617082238234368,-42
599617082245921280,-31
599617082253608192,-11
599617082261295104,-11
599617082268982016,-9
599617082276668928,4
599617082284355840,7
599617082292042752,7
599617082299729664,19
599617082307416576,28
599617082315103488,31
599617082322790400,40
599617082330477312,50
599617082338164224,62
599617082345851136,76
599617082353538048,85
599617082361224966,97
599617082368912000,114
599617082376599040,128
599617082384286080,143
599617082391973120,152
599617082399660160,155
599617082407347200,155
599617082415034368,150
599617082422721408,131
599617082430408448,102
599617082438095488,62
599617082445782528,11
599617082453469568,-31
599617082461156608,-57
599617082468843648,-78
599617082476530688,-93
599617082484217728,-100
599617082491904896,-100
599617082499591936,-95
599617082507278976,-93
599617082514966016,-95
599617082522653056,-88
599617082530340096,-81
599617082538027136,-83
599617082545714176,-81
599617082553401216,-74
599617082561088256,-71
599617082568775296,-69
599617082576462464,-57
599617082584149504,-52
599617082591836544,-52
599617082599523584,-47
599617082607210624,-42
599617082614897664,-42
599617082622584704,-40
599617082630271744,-35
599617082637958784,-35
599617082645645824,-35
599617082653332992,-35
599617082661020032,-33
599617082668707072,-33
599617082676394112,-35
599617082684081152,-35
599617082691768192,-33
599617082699455232,-35
599617082707142272,-33
599617082714829312,-31
599617082722516352,-28
599617082730203392,-31
599617082737890560,-28
599617082745577600,-28
599617082753264640,-31
599617082760951680,-28
599617082768638720,-26
599617082776325760,-23
599617082784012800,-23
599617082791699840,-23
599617082799386880,-21
599617082807073920,-21
599617082814761088,-23
599617082822448128,-23
599617082830135168,-21
599617082837822208,-21
599617082845509248,-23
599617082853196288,-28
599617082860883328,-35
599617082868570368,-40
599617082876257408,-35
599617082883944448,-14
599617082891631616,2
599617082899318656,11
599617082907005696,16
599617082914692736,7
599617082922379780,-14
599617082930066560,-19
599617082937753344,-11
599617082945440128,-9
599617082953126912,-16
599617082960813696,-19
599617082968500480,-14
599617082976187264,-11
599617082983873920,-11
599617082991560704,-19
599617082999247488,-81
599617083006934272,-214
599617083014621056,-212
599617083022307840,179
599617083029994624,814
599617083037681408,1050
599617083045368192,441
599617083053054976,-324
599617083060741760,-379
599617083068428544,-133
599617083076115200,-100
599617083083801984,-71
599617083091488768,-21
599617083099175552,-40
599617083106862336,-42
599617083114549120,-19
599617083122235904,-16
599617083129922688,-19
599617083137609472,-9
599617083145296256,-2
599617083152983040,2
599617083160669824,7
599617083168356480,14
599617083176043264,19
599617083183730048,28
599617083191416832,38
599617083199103616,50
599617083206790400,57
599617083214477184,69
599617083222163968,83
599617083229850752,97
599617083237537536,109
599617083245224320,126
599617083252911104,140
599617083260597760,148
599617083268284544,150
599617083275971328,145
599617083283658112,133
599617083291344896,105
599617083299031680,66
599617083306718464,23
599617083314405248,-19
599617083322092032,-54
599617083329778816,-76
599617083337465600,-88
599617083345152384,-97
599617083352839040,-100
599617083360525824,-97
599617083368212608,-93
599617083375899392,-90
599617083383586176,-90
599617083391272960,-88
599617083398959744,-85
599617083406646528,-81
599617083414333312,-76
599617083422020096,-71
599617083429706880,-69
599617083437393664,-64
599617083445080320,-59
599617083452767104,-54
599617083460453888,-52
599617083468140672,-50
599617083475827456,-45
599617083483514242,-40
599617083491201024,-40
599617083498887808,-38
599617083506574592,-35
599617083514261376,-33
599617083521948160,-33
599617083529634944,-35
599617083537321728,-35
599617083545008384,-33
599617083552695168,-33
