599616301037769216,97
599616301045455872,97
599616301053142528,94
599616301060829312,85
599616301068515968,71
599616301076202752,48
599616301083889408,27
599616301091576064,16
599616301099262848,6
599616301106949504,0
599616301114636160,-2
599616301122322944,0
599616301130009600,2
599616301137696384,2
599616301145383067,4
599616301153069312,6
599616301160755584,11
599616301168441856,11
599616301176128128,11
599616301183814400,11
599616301191500800,13
599616301199187072,9
599616301206873344,9
599616301214559616,13
599616301222245888,16
599616301229932160,16
599616301237618432,18
599616301245304704,18
599616301252990976,20
599616301260677376,20
599616301268363648,23
599616301276049920,25
599616301283736192,27
599616301291422464,25
599616301299108736,27
599616301306795008,30
599616301314481280,30
599616301322167552,27
599616301329853824,30
599616301337540224,30
599616301345226496,25
599616301352912768,20
599616301360599040,23
599616301368285312,25
599616301375971584,25
599616301383657856,25
599616301391344128,25
599616301399030400,25
599616301406716800,25
599616301414403072,27
599616301422089344,30
599616301429775616,30
599616301437461888,27
599616301445148160,27
599616301452834432,30
599616301460520704,30
599616301468206976,30
599616301475893376,30
599616301483579648,30
599616301491265920,30
599616301498952192,30
599616301506638464,32
599616301514324736,32
599616301522011008,32
599616301529697280,32
599616301537383552,32
599616301545069824,32
599616301552756224,34
599616301560442496,34
599616301568128768,34
599616301575815040,32
599616301583501312,34
599616301591187584,34
599616301598873856,32
599616301606560128,30
599616301614246400,25
599616301621932800,18
599616301629619072,20
599616301637305344,41
599616301644991616,62
599616301652677888,62
599616301660364160,57
599616301668050432,50
599616301675736704,34
599616301683422976,25
599616301691109376,32
599616301698795648,36
599616301706481928,34
599616301714168576,36
599616301721855232,39
599616301729542016,36
599616301737228672,36
599616301744915328,25
599616301752602112,-32
599616301760288768,-108
599616301767975552,-43
599616301775662208,261
599616301783348864,612
599616301791035648,603
599616301798722304,145
599616301806408960,-217
599616301814095744,-180
599616301821782400,-64
599616301829469184,-32
599616301837155840,-6
599616301844842496,0
599616301852529280,-2
599616301860215936,6
599616301867902592,18
599616301875589376,23
599616301883276032,25
599616301890962816,30
599616301898649472,34
599616301906336128,39
599616301914022912,41
599616301921709568,46
599616301929396224,48
599616301937083008,53
599616301944769664,57
599616301952456448,62
599616301960143104,64
599616301967829760,71
599616301975516544,76
599616301983203200,83
599616301990889856,87
599616301998576640,92
599616302006263296,94
599616302013950080,97
599616302021636736,94
599616302029323392,87
599616302037010176,69
599616302044696832,46
599616302052383488,25
599616302060070272,11
599616302067756928,0
599616302075443712,-11
599616302083130368,-11
599616302090817024,-11
599616302098503808,-11
599616302106190464,-9
599616302113877120,-4
599616302121563904,-4
599616302129250560,-2
599616302136937344,0
599616302144624000,0
599616302152310656,2
599616302159997440,0
599616302167684096,2
599616302175370752,4
599616302183057536,6
599616302190744192,6
599616302198430976,9
599616302206117632,11
599616302213804288,11
599616302221491072,16
599616302229177728,32
599616302236864384,46
599616302244551168,46
599616302252237824,41
599616302259924608,43
599616302267611307,41
599616302275297536,41
599616302282983808,39
599616302290670080,36
599616302298356352,36
599616302306042624,34
599616302313729024,30
599616302321415296,27
599616302329101568,32
599616302336787840,32
599616302344474112,27
599616302352160384,25
599616302359846656,23
599616302367532928,23
599616302375219200,23
599616302382905600,25
599616302390591872,25
599616302398278144,23
599616302405964416,23
599616302413650688,23
599616302421336960,23
599616302429023232,23
599616302436709504,20
599616302444395776,20
599616302452082048,23
599616302459768448,23
599616302467454720,20
599616302475140992,23
599616302482827264,18
599616302490513536,9
599616302498199808,9
599616302505886080,23
599616302513572352,43
599616302521258624,50
599616302528945024,43
599616302536631296,36
599616302544317568,23
599616302552003840,11
599616302559690112,13
599616302567376384,20
599616302575062656,16
599616302582748928,11
599616302590435200,16
599616302598121600,18
599616302605807872,16
599616302613494144,13
599616302621180416,-11
599616302628866688,-90
599616302636552960,-110
599616302644239232,92
599616302651925504,443
599616302659611776,573
599616302667298048,219
599616302674984448,-240
599616302682670720,-268
599616302690356992,-101
599616302698043264,-69
599616302705729536,-18
599616302713415808,41
599616302721102080,11
599616302728788352,0
599616302736474624,27
599616302744161024,27
599616302751847296,18
599616302759533568,27
599616302767219840,36
599616302774906112,36
599616302782592384,36
599616302790278656,39
599616302797964928,43
599616302805651200,46
599616302813337600,48
599616302821023872,55
599616302828710168,62
599616302836396544,64
599616302844082944,69
599616302851769216,78
599616302859455616,80
599616302867142016,83
599616302874828288,87
599616302882514688,87
599616302890201088,85
599616302897887360,76
599616302905573760,55
599616302913260160,27
599616302920946432,0
599616302928632832,-20
599616302936319104,-36
599616302944005504,-46
599616302951691904,-46
599616302959378176,-43
599616302967064576,-41
599616302974750976,-41
599616302982437248,-32
599616302990123648,-30
599616302997810048,-32
599616303005496320,-30
599616303013182720,-27
599616303020869120,-27
599616303028555392,-25
599616303036241792,-20
599616303043928192,-20
599616303051614464,-20
599616303059300864,-16
599616303066987264,-13
599616303074673536,-13
599616303082359936,-13
599616303090046336,-13
599616303097732608,-9
599616303105419008,-6
599616303113105280,-9
599616303120791680,-6
599616303128478080,-6
599616303136164352,-6
599616303143850752,-4
599616303151537152,-4
599616303159223424,-6
599616303166909824,-4
599616303174596224,-4
599616303182282496,-6
599616303189968896,-4
599616303197655296,-2
599616303205341568,-2
599616303213027968,-4
599616303220714368,-4
599616303228400640,-2
599616303236087040,-2
599616303243773440,-2
599616303251459712,-4
599616303259146112,-4
599616303266832512,-4
599616303274518784,-6
599616303282205184,-13
599616303289891456,-9
599616303297577856,16
599616303305264256,30
599616303312950528,20
599616303320636928,18
599616303328323328,13
599616303336009600,-2
599616303343696000,-9
599616303351382400,-2
599616303359068672,-4
599616303366755072,-9
599616303374441472,-4
599616303382127744,-2
599616303389814120,-9
599616303397500800,-6
599616303405187456,-6
599616303412874112,-53
599616303420560640,-129
599616303428247296,-92
599616303435933952,161
599616303443620608,464
599616303451307264,436
599616303458993920,11
599616303466680448,-300
599616303474367104,-212
599616303482053760,-92
599616303489740416,-73
599616303497427072,-6
599616303505113728,20
599616303512800256,-13
599616303520486912,-6
599616303528173568,16
599616303535860224,9
599616303543546880,4
599616303551233536,13
599616303558920064,20
599616303566606720,18
599616303574293376,23
599616303581980032,27
599616303589666688,30
599616303597353344,32
599616303605039872,36
599616303612726528,41
599616303620413184,48
599616303628099840,55
599616303635786496,60
599616303643473152,67
599616303651159680,73
599616303658846336,80
599616303666532992,80
599616303674219648,80
599616303681906304,76
599616303689592960,62
599616303697279488,36
599616303704966144,9
599616303712652800,-18
599616303720339456,-36
599616303728026112,-43
599616303735712640,-46
599616303743399296,-50
599616303751085952,-50
599616303758772608,-46
599616303766459264,-41
599616303774145920,-36
599616303781832448,-34
599616303789519104,-34
599616303797205760,-32
599616303804892416,-30
599616303812579072,-30
599616303820265728,-27
599616303827952256,-25
599616303835638912,-25
599616303843325568,-23
599616303851012224,-23
599616303858698880,-25
599616303866385536,-25
599616303874072064,-23
599616303881758720,-20
599616303889445376,-16
599616303897132032,-16
599616303904818688,-18
599616303912505344,-18
599616303920191872,-16
599616303927878528,-16
599616303935565184,-18
599616303943251840,-16
599616303950938412,-11
599616303958624640,-16
599616303966310912,-20
599616303973997184,-18
599616303981683456,-23
599616303989369728,-23
599616303997056128,-4
599616304004742400,13
599616304012428672,9
599616304020114944,2
599616304027801216,-4
599616304035487488,-18
599616304043173760,-25
599616304050860032,-20
599616304058546304,-18
599616304066232704,-18
599616304073918976,-16
599616304081605248,-13
599616304089291520,-16
599616304096977792,-16
599616304104664064,-16
599616304112350336,-43
599616304120036608,-115
599616304127722880,-131
599616304135409152,53
599616304143095552,362
599616304150781824,450
599616304158468096,120
599616304166154368,-254
599616304173840640,-254
599616304181526912,-115
599616304189213184,-83
599616304196899456,-32
599616304204585728,13
599616304212272128,-11
599616304219958400,-18
599616304227644672,4
599616304235330944,4
599616304243017216,0
599616304250703488,9
599616304258389760,11
599616304266076032,11
599616304273762304,16
599616304281448704,20
599616304289134976,23
599616304296821248,25
599616304304507520,32
599616304312193792,36
599616304319880064,41
599616304327566336,46
599616304335252608,53
599616304342938880,60
599616304350625152,69
599616304358311552,71
599616304365997824,71
599616304373684096,69
599616304381370368,64
599616304389056640,50
599616304396742912,25
599616304404429184,-2
599616304412115456,-27
599616304419801728,-46
599616304427488128,-50
599616304435174400,-53
599616304442860672,-55
599616304450546944,-53
599616304458233216,-48
599616304465919488,-48
599616304473605760,-46
599616304481292032,-41
599616304488978304,-36
599616304496664704,-36
599616304504350976,-36
599616304512037273,-32
599616304519724032,-34
599616304527410816,-34
599616304535097728,-30
599616304542784512,-27
599616304550471424,-25
599616304558158208,-20
599616304565845120,-23
599616304573531904,-23
599616304581218816,-18
599616304588905600,-20
599616304596592512,-23
599616304604279296,-20
599616304611966208,-18
599616304619652992,-18
599616304627339776,-18
599616304635026688,-16
599616304642713472,-18
599616304650400384,-23
599616304658087168,-23
599616304665774080,-18
599616304673460864,-16
599616304681147776,-2
599616304688834560,11
599616304696521472,9
599616304704208256,4
599616304711895168,-4
599616304719581952,-18
599616304727268736,-20
599616304734955648,-13
599616304742642432,-13
599616304750329344,-13
599616304758016128,-11
599616304765703040,-9
599616304773389824,-11
599616304781076736,-9
599616304788763520,-11
599616304796450432,-50
599616304804137216,-117
599616304811824128,-104
599616304819510912,108
599616304827197696,392
599616304834884608,404
599616304842571392,41
599616304850258304,-261
599616304857945088,-208
599616304865632000,-97
599616304873318784,-76
599616304881005696,-16
599616304888692480,11
599616304896379392,-18
599616304904066176,-11
599616304911753088,9
599616304919439872,0
599616304927126784,0
599616304934813568,11
599616304942500352,11
599616304950187264,11
599616304957874048,20
599616304965560960,18
599616304973247744,16
599616304980934656,25
599616304988621440,34
599616304996308352,34
599616305003995136,39
599616305011682048,46
599616305019368832,53
599616305027055744,55
599616305034742528,60
599616305042429312,67
599616305050116224,67
599616305057803008,62
599616305065489920,55
599616305073176826,41
599616305080862976,18
599616305088549120,-9
599616305096235264,-30
599616305103921408,-41
599616305111607552,-50
599616305119293696,-57
599616305126979840,-55
599616305134665984,-53
599616305142352128,-50
599616305150038272,-43
599616305157724416,-46
599616305165410560,-48
599616305173096704,-39
599616305180782848,-36
599616305188468992,-41
599616305196155136,-39
599616305203841280,-39
599616305211527424,-39
599616305219213568,-34
599616305226899712,-32
599616305234585856,-30
599616305242272000,-30
599616305249958144,-32
599616305257644288,-32
599616305265330432,-30
599616305273016576,-25
599616305280702720,-25
599616305288388992,-25
599616305296075136,-23
599616305303761280,-25
599616305311447424,-25
599616305319133568,-23
599616305326819712,-25
599616305334505856,-30
599616305342192000,-25
599616305349878144,-18
599616305357564288,-4
599616305365250432,2
599616305372936576,-2
599616305380622720,-4
599616305388308864,-13
599616305395995008,-30
599616305403681152,-30
599616305411367296,-27
599616305419053440,-36
599616305426739584,-43
599616305434425728,-39
599616305442111872,-36
599616305449798016,-39
599616305457484160,-36
599616305465170304,-34
599616305472856448,-62
599616305480542592,-127
599616305488228736,-131
599616305495914880,39
599616305503601024,312
599616305511287168,376
599616305518973312,73
599616305526659456,-242
599616305534345600,-228
599616305542031744,-110
599616305549717888,-85
599616305557404032,-39
599616305565090176,-4
599616305572776320,-30
599616305580462464,-27
599616305588148608,-6
599616305595834752,-6
599616305603520896,-11
599616305611207040,-2
599616305618893184,2
599616305626579328,2
599616305634265513,2
599616305641951744,9
599616305649638016,13
599616305657324288,18
599616305665010560,20
599616305672696832,23
599616305680383232,30
599616305688069504,34
599616305695755776,39
599616305703442048,43
599616305711128320,48
599616305718814592,53
599616305726500864,53
599616305734187136,53
599616305741873408,46
599616305749559808,27
599616305757246080,6
599616305764932352,-13
599616305772618624,-34
599616305780304896,-46
599616305787991168,-50
599616305795677440,-55
599616305803363712,-57
599616305811049984,-55
599616305818736256,-50
599616305826422656,-46
599616305834108928,-41
599616305841795200,-43
599616305849481472,-43
599616305857167744,-39
599616305864854016,-34
599616305872540288,-39
599616305880226560,-41
599616305887912832,-36
599616305895599232,-32
599616305903285504,-32
599616305910971776,-34
599616305918658048,-30
599616305926344320,-25
599616305934030592,-23
599616305941716864,-27
599616305949403136,-27
599616305957089408,-18
599616305964775808,-18
599616305972462080,-23
599616305980148352,-18
599616305987834624,-16
599616305995520896,-18
599616306003207168,-16
599616306010893440,-18
599616306018579712,-18
599616306026265984,-16
599616306033952256,-18
599616306041638656,-18
599616306049324928,-9
599616306057011200,4
599616306064697472,9
599616306072383744,11
599616306080070016,6
599616306087756288,-2
599616306095442560,-13
599616306103128832,-13
599616306110815232,-6
599616306118501504,-4
599616306126187776,-9
599616306133874048,-6
599616306141560320,-2
599616306149246592,-4
599616306156932864,0
599616306164619136,-2
599616306172305408,-32
599616306179991808,-97
599616306187678080,-94
599616306195364374,78
599616306203051008,330
599616306210737664,372
599616306218424448,90
599616306226111104,-184
599616306233797760,-171
599616306241484544,-76
599616306249171200,-57
599616306256857984,-18
599616306264544640,11
599616306272231296,-9
599616306279918080,-9
599616306287604736,9
599616306295291392,6
599616306302978176,4
599616306310664832,11
599616306318351616,13
599616306326038272,13
599616306333724928,16
599616306341411712,20
599616306349098368,27
599616306356785024,30
599616306364471808,30
599616306372158464,32
599616306379845248,34
599616306387531904,39
599616306395218560,43
599616306402905344,48
599616306410592000,53
599616306418278656,62
599616306425965440,60
599616306433652096,55
599616306441338880,53
599616306449025536,41
599616306456712192,18
599616306464398976,-2
599616306472085632,-16
599616306479772288,-30
599616306487459072,-36
599616306495145728,-34
599616306502832512,-36
599616306510519168,-36
599616306518205824,-32
599616306525892608,-27
599616306533579264,-30
599616306541265920,-27
599616306548952704,-20
599616306556639360,-20
599616306564326144,-23
599616306572012800,-18
599616306579699456,-18
599616306587386240,-18
599616306595072896,-18
599616306602759552,-18
599616306610446336,-16
599616306618132992,-11
599616306625819776,-11
599616306633506432,-13
599616306641193088,-13
599616306648879872,-9
599616306656566528,-6
599616306664253184,-11
599616306671939968,-9
599616306679626624,-6
599616306687313408,-9
599616306695000064,-6
599616306702686720,-2
599616306710373504,-2
599616306718060160,-6
599616306725746816,-6
599616306733433600,-4
599616306741120256,-6
599616306748807040,-6
599616306756493757,-4
599616306764180096,-4
599616306771866496,-4
599616306779552896,-6
599616306787239424,-11
599616306794925824,-11
599616306802612224,-6
599616306810298624,2
599616306817985024,16
599616306825671552,16
599616306833357952,11
599616306841044352,6
599616306848730752,-4
599616306856417152,-13
599616306864103680,-11
599616306871790080,-6
599616306879476480,-9
599616306887162880,-11
599616306894849280,-11
599616306902535808,-9
599616306910222208,-9
599616306917908608,-9
599616306925595008,-16
599616306933281408,-53
599616306940967936,-110
599616306948654336,-69
599616306956340736,140
599616306964027136,372
599616306971713536,330
599616306979399936,2
599616306987086464,-210
599616306994772864,-145
599616307002459264,-67
599616307010145664,-50
599616307017832064,-13
599616307025518592,0
599616307033204992,-11
599616307040891392,-4
599616307048577792,6
599616307056264192,2
599616307063950720,4
599616307071637120,11
599616307079323520,11
599616307087009920,13
599616307094696320,20
599616307102382848,23
599616307110069248,20
599616307117755648,25
599616307125442048,30
599616307133128448,32
599616307140814976,39
599616307148501376,41
599616307156187776,43
599616307163874176,50
599616307171560576,55
599616307179247104,55
599616307186933504,57
599616307194619904,57
599616307202306304,48
599616307209992704,36
599616307217679232,23
599616307225365632,0
599616307233052032,-18
599616307240738432,-25
599616307248424832,-32
599616307256111360,-36
599616307263797760,-36
599616307271484160,-36
599616307279170560,-34
599616307286856960,-32
599616307294543488,-25
599616307302229888,-25
599616307309916288,-27
599616307317602792,-25
599616307325289344,-20
599616307332975872,-20
599616307340662528,-18
599616307348349056,-13
599616307356035584,-13
599616307363722112,-20
599616307371408768,-20
599616307379095296,-18
599616307386781824,-23
599616307394468480,-23
599616307402155008,-20
599616307409841536,-16
599616307417528064,-16
599616307425214720,-16
599616307432901248,-18
599616307440587776,-20
599616307448274432,-18
599616307455960960,-18
599616307463647488,-16
599616307471334016,-18
599616307479020672,-20
599616307486707200,-18
599616307494393728,-16
599616307502080384,-13
599616307509766912,-16
599616307517453440,-16
599616307525139968,-16
599616307532826624,-13
599616307540513152,-11
599616307548199680,-11
599616307555886336,-11
599616307563572864,-11
599616307571259392,-11
599616307578945920,-11
599616307586632576,-11
599616307594319104,-9
599616307602005632,-9
599616307609692288,-11
599616307617378816,-11
599616307625065344,-6
599616307632751872,-6
599616307640438528,-9
599616307648125056,-9
599616307655811584,-9
599616307663498240,-9
599616307671184768,-6
599616307678871296,-9
599616307686557824,-9
599616307694244480,-6
599616307701931008,-6
599616307709617536,-11
599616307717304192,-6
599616307724990720,-4
599616307732677248,-9
599616307740363776,-6
599616307748050432,-4
599616307755736960,-4
599616307763423488,-4
599616307771110144,-4
599616307778796672,-6
599616307786483200,-6
599616307794169728,-4
599616307801856384,-4
599616307809542912,-6
599616307817229440,-6
599616307824916096,-4
599616307832602624,-6
599616307840289152,-11
599616307847975680,-11
599616307855662336,-13
599616307863348864,-9
599616307871035392,9
599616307878721997,20
599616307886408576,13
599616307894095104,6
599616307901781760,4
599616307909468288,-4
599616307917154816,-13
599616307924841344,-11
599616307932528000,-4
599616307940214528,-6
599616307947901056,-9
599616307955587712,-9
599616307963274240,-9
599616307970960768,-9
599616307978647296,-11
599616307986333952,-48
599616307994020480,-115
599616308001707008,-99
599616308009393664,106
599616308017080192,385
599616308024766720,427
599616308032453248,115
599616308040139904,-184
599616308047826432,-175
599616308055512960,-83
599616308063199616,-67
599616308070886144,-36
599616308078572672,-11
599616308086259200,-23
599616308093945856,-20
599616308101632384,-4
599616308109318912,-4
599616308117005568,-4
599616308124692096,2
599616308132378624,9
599616308140065152,11
599616308147751808,18
599616308155438336,20
599616308163124864,20
599616308170811520,25
599616308178498048,30
599616308186184576,32
599616308193871104,32
599616308201557760,34
599616308209244288,39
599616308216930816,43
599616308224617472,46
599616308232304000,48
599616308239990528,50
599616308247677056,53
599616308255363712,50
599616308263050240,46
599616308270736768,36
599616308278423424,25
599616308286109952,13
599616308293796480,-2
599616308301483008,-13
599616308309169664,-18
599616308316856192,-20
599616308324542720,-25
599616308332229376,-23
599616308339915904,-18
599616308347602432,-20
599616308355288960,-20
599616308362975616,-16
599616308370662144,-16
599616308378348672,-18
599616308386035328,-13
599616308393721856,-13
599616308401408384,-16
599616308409094912,-16
599616308416781568,-13
599616308424468096,-13
599616308432154624,-9
599616308439841206,-6
599616308447527552,-6
599616308455213952,-9
599616308462900352,-6
599616308470586880,-9
599616308478273280,-9
599616308485959680,-9
599616308493646080,-11
599616308501332480,-11
599616308509019008,-11
599616308516705408,-13
599616308524391808,-13
599616308532078208,-13
599616308539764608,-16
599616308547451136,-18
599616308555137536,-16
599616308562823936,-16
599616308570510336,-20
599616308578196736,-20
599616308585883264,-18
599616308593569664,-20
599616308601256064,-18
599616308608942464,-18
599616308616628864,-20
599616308624315392,-20
599616308632001792,-18
599616308639688192,-18
599616308647374592,-20
599616308655060992,-18
599616308662747392,-18
599616308670433920,-20
599616308678120320,-18
599616308685806720,-16
599616308693493120,-18
599616308701179520,-20
599616308708866048,-18
599616308716552448,-18
599616308724238848,-18
599616308731925248,-18
599616308739611648,-18
599616308747298176,-18
599616308754984576,-18
599616308762670976,-18
599616308770357376,-18
599616308778043776,-16
599616308785730304,-16
599616308793416704,-18
599616308801103104,-16
599616308808789504,-18
599616308816475904,-18
599616308824162432,-16
599616308831848832,-16
599616308839535232,-18
599616308847221632,-20
599616308854908032,-23
599616308862594560,-25
599616308870280960,-30
599616308877967360,-25
599616308885653760,-4
599616308893340160,9
599616308901026688,2
599616308908713088,-6
599616308916399488,-9
599616308924085888,-20
599616308931772288,-30
599616308939458816,-23
599616308947145216,-18
599616308954831616,-23
599616308962518016,-23
599616308970204416,-20
599616308977890944,-18
599616308985577344,-20
599616308993263744,-27
599616309000950237,-69
599616309008636544,-138
599616309016322816,-113
599616309024009088,120
599616309031695360,434
599616309039381632,471
599616309047068032,115
599616309054754304,-208
599616309062440576,-201
599616309070126848,-106
599616309077813120,-87
599616309085499392,-67
599616309093185664,-48
599616309100871936,-53
599616309108558208,-46
599616309116244608,-34
599616309123930880,-30
599616309131617152,-30
599616309139303424,-25
599616309146989696,-20
599616309154675968,-18
599616309162362240,-13
599616309170048512,-11
599616309177734784,-11
599616309185421056,-9
599616309193107456,-4
599616309200793728,-4
599616309208480000,-2
599616309216166272,2
599616309223852544,2
599616309231538816,4
599616309239225088,9
599616309246911360,13
599616309254597632,16
599616309262284032,16
599616309269970304,16
599616309277656576,13
599616309285342848,6
599616309293029120,-6
599616309300715392,-23
599616309308401664,-36
599616309316087936,-46
599616309323774208,-50
599616309331460608,-53
599616309339146880,-55
599616309346833152,-55
599616309354519424,-55
599616309362205696,-55
599616309369891968,-53
599616309377578240,-50
599616309385264512,-48
599616309392950784,-48
599616309400637056,-46
599616309408323456,-48
599616309416009728,-48
599616309423696000,-46
599616309431382272,-43
599616309439068544,-43
599616309446754816,-43
599616309454441088,-41
599616309462127360,-39
599616309469813632,-39
599616309477500032,-36
599616309485186304,-34
599616309492872576,-34
599616309500558848,-34
599616309508245120,-32
599616309515931392,-30
599616309523617664,-30
599616309531303936,-30
599616309538990208,-32
599616309546676608,-32
599616309554362880,-32
599616309562049098,-30
599616309569735808,-30
599616309577422464,-30
599616309585109248,-30
599616309592795904,-32
599616309600482560,-34
599616309608169344,-32
599616309615856000,-32
599616309623542784,-32
599616309631229440,-32
599616309638916096,-34
599616309646602880,-34
599616309654289536,-34
599616309661976192,-34
599616309669662976,-32
599616309677349632,-34
599616309685036416,-36
599616309692723072,-36
599616309700409728,-32
599616309708096512,-34
599616309715783168,-36
599616309723469824,-36
599616309731156608,-36
599616309738843264,-36
599616309746530048,-36
599616309754216704,-36
599616309761903360,-34
599616309769590144,-34
599616309777276800,-36
599616309784963456,-39
599616309792650240,-36
599616309800336896,-34
599616309808023680,-36
599616309815710336,-39
599616309823396992,-36
599616309831083776,-36
599616309838770432,-39
599616309846457088,-41
599616309854143872,-39
599616309861830528,-39
599616309869517312,-43
599616309877203968,-48
599616309884890624,-53
599616309892577408,-50
599616309900264064,-32
599616309907950720,-16
599616309915637504,-20
599616309923324160,-27
599616309931010944,-30
599616309938697600,-41
599616309946384256,-50
599616309954071040,-43
599616309961757696,-34
599616309969444352,-30
599616309977131136,-27
599616309984817792,-36
599616309992504576,-41
599616310000191232,-36
599616310007877888,-43
599616310015564672,-94
599616310023251328,-166
599616310030937984,-136
599616310038624768,113
599616310046311424,452
599616310053998208,496
599616310061684864,122
599616310069371520,-226
599616310077058304,-224
599616310084744960,-117
599616310092431616,-99
599616310100118400,-92
599616310107805056,-73
599616310115491840,-69
599616310123178481,-64
599616310130864896,-53
599616310138551296,-48
599616310146237696,-48
599616310153924224,-41
599616310161610624,-36
599616310169297024,-36
599616310176983424,-32
599616310184669824,-27
599616310192356352,-30
599616310200042752,-32
599616310207729152,-30
599616310215415552,-25
599616310223101952,-23
599616310230788480,-20
599616310238474880,-16
599616310246161280,-13
599616310253847680,-11
599616310261534080,-6
599616310269220608,-2
599616310276907008,-2
599616310284593408,-4
599616310292279808,-6
599616310299966208,-9
599616310307652736,-18
599616310315339136,-34
599616310323025536,-48
599616310330711936,-60
599616310338398336,-64
599616310346084736,-67
599616310353771264,-71
599616310361457664,-69
599616310369144064,-69
599616310376830464,-67
599616310384516864,-67
599616310392203392,-62
599616310399889792,-60
599616310407576192,-60
599616310415262592,-62
599616310422948992,-60
599616310430635520,-57
599616310438321920,-57
599616310446008320,-55
599616310453694720,-50
599616310461381120,-48
599616310469067648,-48
599616310476754048,-46
599616310484440448,-46
599616310492126848,-46
599616310499813248,-43
599616310507499776,-43
599616310515186176,-46
599616310522872576,-41
599616310530558976,-39
599616310538245376,-41
599616310545931904,-41
599616310553618304,-41
599616310561304704,-41
599616310568991104,-43
599616310576677504,-43
599616310584364032,-41
599616310592050432,-41
599616310599736832,-43
599616310607423232,-43
599616310615109632,-43
599616310622796160,-43
599616310630482560,-41
599616310638168960,-41
599616310645855360,-43
599616310653541760,-43
599616310661228288,-41
599616310668914688,-41
599616310676601088,-43
599616310684287516,-43
599616310691974272,-43
599616310699661056,-43
599616310707347840,-43
599616310715034624,-43
599616310722721408,-43
599616310730408192,-43
599616310738094976,-41
599616310745781632,-43
599616310753468416,-43
599616310761155200,-43
599616310768841984,-46
599616310776528768,-46
599616310784215552,-46
599616310791902336,-46
599616310799589120,-46
599616310807275904,-46
599616310814962688,-46
599616310822649472,-43
599616310830336256,-43
599616310838022912,-46
599616310845709696,-46
599616310853396480,-46
599616310861083264,-50
599616310868770048,-55
599616310876456832,-57
599616310884143616,-50
599616310891830400,-27
599616310899517184,-16
599616310907203968,-20
599616310914890752,-27
599616310922577536,-39
599616310930264192,-53
599616310937950976,-53
599616310945637760,-46
599616310953324544,-46
599616310961011328,-48
599616310968698112,-46
599616310976384896,-46
599616310984071680,-43
599616310991758464,-46
599616310999445248,-69
599616311007132032,-138
599616311014818816,-187
599616311022505472,-50
599616311030192256,293
599616311037879040,559
599616311045565824,381
599616311053252608,-80
599616311060939392,-288
599616311068626176,-189
599616311076312960,-108
599616311083999744,-101
599616311091686528,-85
599616311099373312,-76
599616311107060096,-71
599616311114746752,-62
599616311122433536,-55
599616311130120320,-53
599616311137807104,-46
599616311145493888,-43
599616311153180672,-41
599616311160867456,-39
599616311168554240,-34
599616311176241024,-32
599616311183927808,-30
599616311191614592,-27
599616311199301376,-25
599616311206988160,-23
599616311214674816,-20
599616311222361600,-18
599616311230048384,-11
599616311237735168,-6
599616311245421981,-4
599616311253107968,-2
599616311260793984,-2
599616311268480128,0
599616311276166144,-2
599616311283852288,-4
599616311291538304,-16
599616311299224448,-27
599616311306910464,-43
599616311314596608,-55
599616311322282624,-64
599616311329968768,-67
599616311337654784,-73
599616311345340928,-76
599616311353026944,-73
599616311360713088,-71
599616311368399104,-71
599616311376085248,-67
599616311383771264,-64
599616311391457408,-64
599616311399143424,-62
599616311406829440,-62
599616311414515584,-62
599616311422201600,-64
599616311429887744,-64
599616311437573760,-62
599616311445259904,-60
599616311452945920,-57
599616311460632064,-57
599616311468318080,-55
599616311476004224,-55
599616311483690240,-55
599616311491376384,-53
599616311499062400,-53
599616311506748544,-50
599616311514434560,-48
599616311522120704,-48
599616311529806720,-48
599616311537492864,-48
599616311545178880,-48
599616311552865024,-48
599616311560551040,-48
599616311568237056,-48
599616311575923200,-48
599616311583609216,-46
599616311591295360,-46
599616311598981376,-46
599616311606667520,-46
599616311614353536,-46
599616311622039680,-48
599616311629725696,-46
599616311637411840,-43
599616311645097856,-46
599616311652784000,-46
599616311660470016,-43
599616311668156160,-43
599616311675842176,-46
599616311683528320,-41
599616311691214336,-41
599616311698900480,-41
599616311706586496,-41
599616311714272512,-41
599616311721958656,-43
599616311729644672,-41
599616311737330816,-39
599616311745016832,-36
599616311752702976,-36
599616311760388992,-39
599616311768075136,-39
599616311775761152,-36
599616311783447296,-39
599616311791133312,-41
599616311798819456,-41
599616311806505582,-43
599616311814192256,-53
599616311821878912,-50
599616311829565696,-30
599616311837252352,-13
599616311844939008,-13
599616311852625792,-18
599616311860312448,-23
599616311867999232,-39
599616311875685888,-48
599616311883372544,-43
599616311891059328,-39
599616311898745984,-41
599616311906432640,-41
599616311914119424,-39
599616311921806080,-41
599616311929492864,-43
599616311937179520,-55
599616311944866176,-113
599616311952552960,-182
599616311960239616,-101
599616311967926272,205
599616311975613056,529
599616311983299712,469
599616311990986496,4
599616311998673152,-305
599616312006359808,-228
599616312014046592,-120
599616312021733248,-97
599616312029419904,-67
599616312037106688,-62
599616312044793344,-67
599616312052480128,-53
599616312060166784,-43
599616312067853440,-43
599616312075540224,-39
599616312083226880,-36
599616312090913536,-34
599616312098600320,-27
599616312106286976,-23
599616312113973760,-23
599616312121660416,-20
599616312129347072,-18
599616312137033856,-13
599616312144720512,-9
599616312152407168,-4
599616312160093952,-2
599616312167780608,2
599616312175467392,6
599616312183154048,11
599616312190840704,16
599616312198527488,18
599616312206214144,16
599616312213900800,11
599616312221587584,6
599616312229274240,-4
599616312236961024,-23
599616312244647680,-43
599616312252334336,-57
599616312260021120,-67
599616312267707776,-76
599616312275394432,-76
599616312283081216,-76
599616312290767872,-76
599616312298454656,-73
599616312306141312,-73
599616312313827968,-71
599616312321514752,-67
599616312329201408,-67
599616312336888064,-67
599616312344574848,-62
599616312352261504,-62
599616312359948288,-62
599616312367634961,-57
599616312375321216,-55
599616312383007488,-55
599616312390693760,-53
599616312398380032,-50
599616312406066304,-53
599616312413752704,-53
599616312421438976,-53
599616312429125248,-55
599616312436811520,-55
599616312444497792,-53
599616312452184064,-53
599616312459870336,-53
599616312467556608,-50
599616312475242880,-53
599616312482929280,-53
599616312490615552,-50
599616312498301824,-53
599616312505988096,-50
599616312513674368,-50
599616312521360640,-48
599616312529046912,-48
599616312536733184,-50
599616312544419456,-50
599616312552105728,-48
599616312559792128,-46
599616312567478400,-46
599616312575164672,-46
599616312582850944,-48
599616312590537216,-48
599616312598223488,-46
599616312605909760,-46
599616312613596032,-50
599616312621282304,-48
599616312628968704,-48
599616312636654976,-53
599616312644341248,-57
599616312652027520,-46
599616312659713792,-27
599616312667400064,-20
599616312675086336,-27
599616312682772608,-30
599616312690458880,-39
599616312698145280,-55
599616312705831552,-53
599616312713517824,-46
599616312721204096,-50
599616312728890368,-50
599616312736576640,-46
599616312744262912,-48
599616312751949184,-48
599616312759635456,-43
599616312767321728,-62
599616312775008128,-131
599616312782694400,-180
599616312790380672,-48
599616312798066944,265
599616312805753216,485
599616312813439488,268
599616312821125760,-210
599616312828812032,-353
599616312836498304,-189
599616312844184704,-122
599616312851870976,-94
599616312859557248,-27
599616312867243520,-36
599616312874929792,-62
599616312882616064,-39
599616312890302336,-30
599616312897988608,-41
599616312905674880,-32
599616312913361280,-25
599616312921047552,-27
599616312928733822,-27
599616312936420224,-23
599616312944106624,-20
599616312951792896,-18
599616312959479296,-18
599616312967165696,-16
599616312974851968,-6
599616312982538368,0
599616312990224768,4
599616312997911040,11
599616313005597440,18
599616313013283840,20
599616313020970112,25
599616313028656512,27
599616313036342784,27
599616313044029184,20
599616313051715584,4
599616313059401856,-18
599616313067088256,-43
599616313074774656,-64
599616313082460928,-78
599616313090147328,-90
599616313097833728,-94
599616313105520000,-94
599616313113206400,-90
599616313120892800,-87
599616313128579072,-85
599616313136265472,-83
599616313143951872,-80
599616313151638144,-78
599616313159324544,-78
599616313167010944,-76
599616313174697216,-71
599616313182383616,-71
599616313190070016,-69
599616313197756288,-67
599616313205442688,-64
599616313213128960,-60
599616313220815360,-60
599616313228501760,-60
599616313236188032,-60
599616313243874432,-57
599616313251560832,-57
599616313259247104,-55
599616313266933504,-53
599616313274619904,-55
599616313282306176,-53
599616313289992576,-53
599616313297678976,-55
599616313305365248,-53
599616313313051648,-50
599616313320738048,-55
599616313328424320,-55
599616313336110720,-53
599616313343797120,-55
599616313351483392,-60
599616313359169792,-60
599616313366856192,-50
599616313374542464,-34
599616313382228864,-27
599616313389915136,-32
599616313397601536,-34
599616313405287936,-46
599616313412974208,-62
599616313420660608,-60
599616313428347008,-50
599616313436033280,-55
599616313443719680,-60
599616313451406080,-55
599616313459092352,-53
599616313466778752,-55
599616313474465152,-53
599616313482151424,-62
599616313489837774,-110
599616313497524480,-175
599616313505211136,-106
599616313512897792,168
599616313520584320,427
599616313528270976,307
599616313535957632,-131
599616313543644288,-348
599616313551330944,-219
599616313559017600,-129
599616313566704128,-104
599616313574390784,-32
599616313582077440,-25
599616313589764096,-60
599616313597450752,-48
599616313605137408,-32
599616313612823936,-36
599616313620510592,-34
599616313628197248,-27
599616313635883904,-27
599616313643570560,-25
599616313651257216,-20
599616313658943744,-18
599616313666630400,-13
599616313674317056,-6
599616313682003712,-6
599616313689690368,-2
599616313697377024,4
599616313705063552,9
599616313712750208,16
599616313720436864,20
599616313728123520,27
599616313735810176,32
599616313743496832,32
599616313751183360,30
599616313758870016,20
599616313766556672,6
599616313774243328,-18
599616313781929984,-46
599616313789616640,-69
599616313797303168,-83
599616313804989824,-92
599616313812676480,-94
599616313820363136,-90
599616313828049792,-90
599616313835736320,-90
599616313843422976,-85
599616313851109632,-78
599616313858796288,-78
599616313866482944,-80
599616313874169600,-76
599616313881856128,-76
599616313889542784,-76
599616313897229440,-73
599616313904916096,-69
599616313912602752,-69
599616313920289408,-69
599616313927975936,-69
599616313935662592,-64
599616313943349248,-64
599616313951035904,-67
599616313958722560,-64
599616313966409216,-62
599616313974095744,-64
599616313981782400,-62
599616313989469056,-57
599616313997155712,-57
599616314004842368,-62
599616314012529024,-62
599616314020215552,-62
599616314027902208,-64
599616314035588864,-64
599616314043275520,-53
599616314050962066,-36
599616314058648320,-34
599616314066334592,-36
599616314074020864,-39
599616314081707136,-48
599616314089393408,-62
599616314097079808,-62
599616314104766080,-57
599616314112452352,-55
599616314120138624,-57
599616314127824896,-57
599616314135511168,-55
599616314143197440,-53
599616314150883712,-55
599616314158569984,-67
599616314166256384,-117
599616314173942656,-171
599616314181628928,-80
599616314189315200,189
599616314197001472,402
599616314204687744,233
599616314212374016,-184
599616314220060288,-325
599616314227746560,-184
599616314235432832,-122
599616314243119232,-94
599616314250805504,-25
599616314258491776,-30
599616314266178048,-57
599616314273864320,-36
599616314281550592,-27
599616314289236864,-36
599616314296923136,-30
599616314304609408,-23
599616314312295808,-25
599616314319982080,-23
599616314327668352,-16
599616314335354624,-13
599616314343040896,-16
599616314350727168,-9
599616314358413440,0
599616314366099712,2
599616314373785984,4
599616314381472384,11
599616314389158656,18
599616314396844928,23
599616314404531200,25
599616314412217472,30
599616314419903744,27
599616314427590016,23
599616314435276288,16
599616314442962560,-2
599616314450648832,-32
599616314458335232,-64
599616314466021504,-76
599616314473707776,-83
599616314481394048,-99
599616314489080320,-101
599616314496766592,-94
599616314504452864,-94
599616314512139136,-94
599616314519825408,-90
599616314527511808,-85
599616314535198080,-85
599616314542884352,-85
599616314550570624,-80
599616314558256896,-78
599616314565943168,-78
599616314573629440,-78
599616314581315712,-71
599616314589001984,-67
599616314596688384,-67
599616314604374656,-67
599616314612060927,-67
599616314619747584,-67
599616314627434240,-62
599616314635121024,-62
599616314642807680,-62
599616314650494336,-57
599616314658181120,-57
599616314665867776,-64
599616314673554560,-64
599616314681241216,-60
599616314688927872,-55
599616314696614656,-39
599616314704301312,-34
599616314711987968,-36
599616314719674752,-41
599616314727361408,-55
599616314735048192,-67
599616314742734848,-62
599616314750421504,-55
599616314758108288,-57
599616314765794944,-57
599616314773481600,-53
599616314781168384,-55
599616314788855040,-55
599616314796541824,-53
599616314804228480,-67
599616314811915136,-120
599616314819601920,-166
599616314827288576,-62
599616314834975232,196
599616314842662016,369
599616314850348672,182
599616314858035456,-196
599616314865722112,-298
599616314873408768,-168
599616314881095552,-115
599616314888782208,-80
599616314896468864,-27
599616314904155648,-39
599616314911842304,-53
599616314919529088,-36
599616314927215744,-32
599616314934902400,-36
599616314942589184,-32
599616314950275840,-27
599616314957962496,-27
599616314965649280,-27
599616314973335936,-23
599616314981022720,-18
599616314988709376,-18
599616314996396032,-11
599616315004082816,-4
599616315011769472,-2
599616315019456128,0
599616315027142912,9
599616315034829568,13
599616315042516352,16
599616315050203008,20
599616315057889664,20
599616315065576448,18
599616315073263104,16
599616315080949760,6
599616315088636544,-18
599616315096323200,-43
599616315104009984,-60
599616315111696640,-73
599616315119383296,-87
599616315127070080,-90
599616315134756736,-83
599616315142443392,-87
599616315150130176,-90
599616315157816832,-80
599616315165503616,-76
599616315173190306,-80
599616315180876544,-78
599616315188562816,-71
599616315196249088,-71
599616315203935360,-71
599616315211621632,-73
599616315219308032,-73
599616315226994304,-69
599616315234680576,-67
599616315242366848,-67
599616315250053120,-67
599616315257739392,-67
599616315265425664,-64
599616315273111936,-64
599616315280798208,-62
599616315288484608,-62
599616315296170880,-64
599616315303857152,-60
599616315311543424,-57
599616315319229696,-50
599616315326915968,-41
599616315334602240,-41
599616315342288512,-39
599616315349974784,-36
599616315357661056,-55
599616315365347456,-67
599616315373033728,-62
599616315380720000,-57
599616315388406272,-60
599616315396092544,-60
599616315403778816,-55
599616315411465088,-50
599616315419151360,-53
599616315426837632,-55
599616315434524032,-64
599616315442210304,-113
599616315449896576,-166
599616315457582848,-87
599616315465269120,154
599616315472955392,342
599616315480641664,196
599616315488327936,-157
599616315496014208,-284
599616315503700608,-173
599616315511386880,-115
599616315519073152,-90
599616315526759424,-41
599616315534445696,-46
599616315542131968,-64
599616315549818240,-46
599616315557504512,-36
599616315565190784,-46
599616315572877056,-39
599616315580563456,-30
599616315588249728,-32
599616315595936000,-32
599616315603622272,-23
599616315611308544,-23
599616315618994816,-23
599616315626681088,-16
599616315634367360,-9
599616315642053632,-11
599616315649740032,-6
599616315657426304,0
599616315665112576,4
599616315672798848,9
599616315680485120,11
599616315688171392,13
599616315695857664,9
599616315703543936,2
599616315711230208,-4
599616315718916608,-23
599616315726602880,-46
599616315734289167,-60
599616315741975808,-64
599616315749662464,-78
599616315757349248,-87
599616315765035904,-80
599616315772722560,-80
599616315780409344,-83
599616315788096000,-80
599616315795782784,-73
599616315803469440,-69
599616315811156096,-69
599616315818842880,-60
599616315826529536,-53
599616315834216192,-55
599616315841902976,-55
599616315849589632,-53
599616315857276416,-55
599616315864963072,-53
599616315872649728,-53
599616315880336512,-57
599616315888023168,-57
599616315895709824,-55
599616315903396608,-53
599616315911083264,-53
599616315918770048,-55
599616315926456704,-53
599616315934143360,-50
599616315941830144,-50
599616315949516800,-53
599616315957203456,-48
599616315964890240,-36
599616315972576896,-27
599616315980263680,-27
599616315987950336,-25
599616315995636992,-34
599616316003323776,-50
599616316011010432,-50
599616316018697088,-41
599616316026383872,-43
599616316034070528,-48
599616316041757312,-43
599616316049443968,-34
599616316057130624,-25
599616316064817408,-25
599616316072504064,-27
599616316080190720,-55
599616316087877504,-122
599616316095564160,-124
599616316103250944,48
599616316110937600,284
599616316118624256,318
599616316126311040,48
599616316133997696,-208
599616316141684352,-187
599616316149371136,-94
599616316157057792,-76
599616316164744576,-43
599616316172431232,-23
599616316180117888,-41
599616316187804672,-34
599616316195491328,-18
599616316203177984,-23
599616316210864768,-25
599616316218551424,-18
599616316226238208,-16
599616316233924864,-18
599616316241611520,-13
599616316249298304,-2
599616316256984960,4
599616316264671616,9
599616316272358400,9
599616316280045056,2
599616316287731840,6
599616316295418550,16
599616316303104768,18
599616316310791040,20
599616316318477312,25
599616316326163584,30
599616316333849856,27
599616316341536256,27
599616316349222528,18
599616316356908800,-2
599616316364595072,-20
599616316372281344,-36
599616316379967616,-53
599616316387653888,-57
599616316395340160,-64
599616316403026432,-71
599616316410712832,-67
599616316418399104,-62
599616316426085376,-62
599616316433771648,-57
599616316441457920,-53
599616316449144192,-55
599616316456830464,-57
599616316464516736,-53
599616316472203008,-50
599616316479889280,-50
599616316487575680,-50
599616316495261952,-48
599616316502948224,-46
599616316510634496,-41
599616316518320768,-41
599616316526007040,-43
599616316533693312,-41
599616316541379584,-36
599616316549065856,-34
599616316556752256,-34
599616316564438528,-34
599616316572124800,-36
599616316579811072,-39
599616316587497344,-36
599616316595183616,-36
599616316602869888,-36
599616316610556160,-34
599616316618242432,-32
599616316625928832,-39
599616316633615104,-39
599616316641301376,-34
599616316648987648,-39
599616316656673920,-43
599616316664360192,-32
599616316672046464,-16
599616316679732736,-11
599616316687419008,-16
599616316695105280,-18
599616316702791680,-27
599616316710477952,-39
599616316718164224,-41
599616316725850496,-34
599616316733536768,-32
599616316741223040,-36
599616316748909312,-34
599616316756595584,-32
599616316764281856,-32
599616316771968256,-34
599616316779654528,-36
599616316787340800,-67
599616316795027072,-131
599616316802713344,-113
599616316810399616,80
599616316818085888,321
599616316825772160,321
599616316833458432,25
599616316841144832,-212
599616316848831104,-175
599616316856517411,-92
599616316864203648,-78
599616316871889920,-46
599616316879576192,-25
599616316887262464,-43
599616316894948736,-39
599616316902635136,-23
599616316910321408,-25
599616316918007680,-27
599616316925693952,-18
599616316933380224,-13
599616316941066496,-16
599616316948752768,-16
599616316956439040,-13
599616316964125312,-11
599616316971811712,-9
599616316979497984,-9
599616316987184256,-2
599616316994870528,0
599616317002556800,2
599616317010243072,9
599616317017929344,13
599616317025615616,16
599616317033301888,18
599616317040988160,23
599616317048674560,20
599616317056360832,11
599616317064047104,2
599616317071733376,-13
599616317079419648,-32
599616317087105920,-48
599616317094792192,-55
599616317102478464,-60
599616317110164736,-64
599616317117851136,-62
599616317125537408,-57
599616317133223680,-55
599616317140909952,-53
599616317148596224,-53
599616317156282496,-50
599616317163968768,-50
599616317171655040,-46
599616317179341312,-41
599616317187027712,-46
599616317194713984,-48
599616317202400256,-43
599616317210086528,-39
599616317217772800,-41
599616317225459072,-39
599616317233145344,-36
599616317240831616,-36
599616317248517888,-39
599616317256204160,-34
599616317263890560,-32
599616317271576832,-36
599616317279263104,-34
599616317286949376,-32
599616317294635648,-32
599616317302321920,-34
599616317310008192,-36
599616317317694464,-34
599616317325380736,-32
599616317333067136,-32
599616317340753408,-34
599616317348439680,-34
599616317356125952,-34
599616317363812224,-32
599616317371498496,-34
599616317379184768,-36
599616317386871040,-34
599616317394557312,-32
599616317402243712,-32
599616317409929984,-34
599616317417616272,-32
599616317425302912,-32
599616317432989568,-34
599616317440676352,-34
599616317448363008,-34
599616317456049664,-32
599616317463736448,-32
599616317471423104,-36
599616317479109888,-39
599616317486796544,-39
599616317494483200,-39
599616317502169984,-39
599616317509856640,-39
599616317517543296,-39
599616317525230080,-36
599616317532916736,-34
599616317540603520,-36
599616317548290176,-36
599616317555976832,-34
599616317563663616,-32
599616317571350272,-34
599616317579036928,-36
599616317586723712,-32
599616317594410368,-30
599616317602097152,-32
599616317609783808,-34
599616317617470464,-32
599616317625157248,-30
599616317632843904,-32
599616317640530560,-32
599616317648217344,-32
599616317655904000,-30
599616317663590784,-30
599616317671277440,-30
599616317678964096,-27
599616317686650880,-27
599616317694337536,-30
599616317702024192,-34
599616317709710976,-36
599616317717397632,-36
599616317725084416,-25
599616317732771072,-11
599616317740457728,-9
599616317748144512,-11
599616317755831168,-13
599616317763517824,-20
599616317771204608,-34
599616317778891264,-36
599616317786578048,-30
599616317794264704,-27
599616317801951360,-30
599616317809638144,-27
599616317817324800,-27
599616317825011456,-27
599616317832698240,-27
599616317840384896,-48
599616317848071680,-115
599616317855758336,-138
599616317863444992,23
599616317871131776,312
599616317878818432,434
599616317886505088,187
599616317894191872,-147
599616317901878528,-203
599616317909565312,-108
599616317917251968,-83
599616317924938624,-60
599616317932625408,-27
599616317940312064,-36
599616317947998720,-39
599616317955685504,-20
599616317963372160,-20
599616317971058944,-25
599616317978745651,-18
599616317986432128,-13
599616317994118656,-16
599616318001805312,-11
599616318009491840,-6
599616318017178368,-9
599616318024864896,-6
599616318032551552,-2
599616318040238080,0
599616318047924608,0
599616318055611264,2
599616318063297792,6
599616318070984320,6
599616318078670848,6
599616318086357504,9
599616318094044032,11
599616318101730560,11
599616318109417216,11
599616318117103744,9
599616318124790272,4
599616318132476800,-6
599616318140163456,-18
599616318147849984,-32
599616318155536512,-41
599616318163223168,-46
599616318170909696,-50
599616318178596224,-53
599616318186282752,-50
599616318193969408,-50
599616318201655936,-48
599616318209342464,-48
599616318217029120,-48
599616318224715648,-43
599616318232402176,-39
599616318240088704,-41
599616318247775360,-43
599616318255461888,-39
599616318263148416,-36
599616318270835072,-39
599616318278521600,-41
599616318286208128,-34
599616318293894656,-32
599616318301581312,-36
599616318309267840,-39
599616318316954368,-34
599616318324641024,-34
599616318332327552,-36
599616318340014080,-34
599616318347700608,-32
599616318355387264,-34
599616318363073792,-32
599616318370760320,-32
599616318378446976,-32
599616318386133504,-32
599616318393820032,-34
599616318401506560,-34
599616318409193216,-34
599616318416879744,-34
599616318424566272,-32
599616318432252928,-34
599616318439939456,-34
599616318447625984,-34
599616318455312512,-34
599616318462999168,-32
599616318470685696,-34
599616318478372224,-34
599616318486058880,-36
599616318493745408,-41
599616318501431936,-36
599616318509118464,-36
599616318516805120,-36
599616318524491648,-36
599616318532178176,-36
599616318539864860,-43
599616318547551232,-43
599616318555237632,-34
599616318562924032,-34
599616318570610560,-34
599616318578296960,-32
599616318585983360,-32
599616318593669760,-34
599616318601356160,-34
599616318609042688,-36
599616318616729088,-34
599616318624415488,-32
599616318632101888,-32
599616318639788288,-34
599616318647474816,-34
599616318655161216,-34
599616318662847616,-32
599616318670534016,-32
599616318678220416,-36
599616318685906944,-39
599616318693593344,-43
599616318701279744,-43
599616318708966144,-30
599616318716652544,-11
599616318724339072,-11
599616318732025472,-18
599616318739711872,-20
599616318747398272,-27
599616318755084672,-41
599616318762771072,-43
599616318770457600,-34
599616318778144000,-34
599616318785830400,-39
599616318793516800,-36
599616318801203200,-32
599616318808889728,-32
599616318816576128,-39
599616318824262528,-69
599616318831948928,-136
599616318839635328,-152
599616318847321856,27
599616318855008256,351
599616318862694656,485
599616318870381056,205
599616318878067456,-164
599616318885753984,-226
599616318893440384,-129
599616318901126784,-101
599616318908813184,-83
599616318916499584,-57
599616318924186112,-62
599616318931872512,-60
599616318939558912,-46
599616318947245312,-43
599616318954931712,-43
599616318962618240,-36
599616318970304640,-34
599616318977991040,-34
599616318985677440,-32
599616318993363840,-32
599616319001050368,-32
599616319008736768,-25
599616319016423168,-23
599616319024109568,-23
599616319031795968,-20
599616319039482496,-18
599616319047168896,-16
599616319054855296,-11
599616319062541696,-6
599616319070228096,-4
599616319077914624,-2
599616319085601024,0
599616319093287424,-2
599616319100973891,-6
599616319108660224,-13
599616319116346496,-23
599616319124032768,-41
599616319131719040,-57
599616319139405312,-71
599616319147091712,-76
599616319154777984,-78
599616319162464256,-76
599616319170150528,-76
599616319177836800,-73
599616319185523072,-71
599616319193209344,-69
599616319200895616,-67
599616319208581888,-67
599616319216268288,-64
599616319223954560,-62
599616319231640832,-64
599616319239327104,-64
599616319247013376,-60
599616319254699648,-60
599616319262385920,-62
599616319270072192,-60
599616319277758464,-60
599616319285444736,-55
599616319293131136,-55
599616319300817408,-55
599616319308503680,-53
599616319316189952,-53
599616319323876224,-50
599616319331562496,-48
599616319339248768,-50
599616319346935040,-50
599616319354621312,-46
599616319362307712,-48
599616319369993984,-50
599616319377680256,-50
599616319385366528,-48
599616319393052800,-46
599616319400739072,-48
599616319408425344,-50
599616319416111616,-48
599616319423797888,-46
599616319431484288,-48
599616319439170560,-50
599616319446856832,-46
599616319454543104,-46
599616319462229376,-48
599616319469915648,-46
599616319477601920,-48
599616319485288192,-50
599616319492974464,-53
599616319500660736,-55
599616319508347136,-53
599616319516033408,-50
599616319523719680,-53
599616319531405952,-53
599616319539092224,-50
599616319546778496,-53
599616319554464768,-53
599616319562151040,-53
599616319569837312,-53
599616319577523712,-50
599616319585209984,-50
599616319592896256,-55
599616319600582528,-53
599616319608268800,-50
599616319615955072,-55
599616319623641344,-55
599616319631327616,-50
599616319639013888,-50
599616319646700288,-55
599616319654386560,-57
599616319662072752,-57
599616319669759360,-64
599616319677446016,-67
599616319685132800,-50
599616319692819456,-30
599616319700506112,-30
599616319708192896,-36
599616319715879552,-39
599616319723566336,-48
599616319731252992,-62
599616319738939648,-62
599616319746626432,-53
599616319754313088,-55
599616319761999744,-60
599616319769686528,-55
599616319777373184,-53
599616319785059968,-55
599616319792746624,-62
599616319800433280,-99
599616319808120064,-173
599616319815806720,-166
599616319823493376,57
599616319831180160,395
599616319838866816,485
599616319846553600,145
599616319854240256,-224
599616319861926912,-249
599616319869613696,-138
599616319877300352,-113
599616319884987008,-101
599616319892673792,-80
599616319900360448,-80
599616319908047232,-76
599616319915733888,-64
599616319923420544,-60
599616319931107328,-57
599616319938793984,-53
599616319946480640,-48
599616319954167424,-48
599616319961854080,-46
599616319969540864,-43
599616319977227520,-41
599616319984914176,-36
599616319992600960,-34
599616320000287616,-36
599616320007974272,-36
599616320015661056,-32
599616320023347712,-27
599616320031034496,-23
599616320038721152,-20
599616320046407808,-16
599616320054094592,-11
599616320061781248,-11
599616320069467904,-13
599616320077154688,-16
599616320084841344,-20
599616320092528128,-32
599616320100214784,-48
599616320107901440,-62
599616320115588224,-71
599616320123274880,-76
599616320130961536,-80
599616320138648320,-83
599616320146334976,-80
599616320154021760,-80
599616320161708416,-78
599616320169395072,-76
599616320177081856,-76
599616320184768512,-73
599616320192455168,-73
599616320200141952,-73
599616320207828608,-71
599616320215515392,-69
599616320223202135,-69
599616320230888448,-67
599616320238574720,-67
599616320246260992,-67
599616320253947264,-64
599616320261633536,-62
599616320269319936,-62
599616320277006208,-62
599616320284692480,-60
599616320292378752,-57
599616320300065024,-55
599616320307751296,-55
599616320315437568,-55
599616320323123840,-57
599616320330810112,-55
599616320338496512,-55
599616320346182784,-60
599616320353869056,-57
599616320361555328,-57
599616320369241600,-57
599616320376927872,-57
599616320384614144,-60
599616320392300416,-57
599616320399986688,-57
599616320407672960,-57
599616320415359360,-57
599616320423045632,-57
599616320430731904,-60
599616320438418176,-57
599616320446104448,-57
599616320453790720,-55
599616320461476992,-57
599616320469163264,-57
599616320476849536,-57
599616320484535936,-57
599616320492222208,-55
599616320499908480,-57
599616320507594752,-60
599616320515281024,-62
599616320522967296,-62
599616320530653568,-62
599616320538339840,-60
599616320546026112,-60
599616320553712512,-60
599616320561398784,-60
599616320569085056,-60
599616320576771328,-60
599616320584457600,-57
599616320592143872,-57
599616320599830144,-60
599616320607516416,-62
599616320615202688,-67
599616320622888960,-71
599616320630575360,-62
599616320638261632,-41
599616320645947904,-30
599616320653634176,-32
599616320661320448,-36
599616320669006720,-46
599616320676692992,-60
599616320684379264,-62
599616320692065536,-55
599616320699751936,-53
599616320707438208,-55
599616320715124480,-53
599616320722810752,-50
599616320730497024,-50
599616320738183296,-53
599616320745869568,-76
599616320753555840,-147
599616320761242112,-191
599616320768928512,-41
599616320776614784,298
599616320784300996,533
599616320791987328,325
599616320799673600,-127
599616320807359872,-293
599616320815046144,-180
599616320822732416,-115
599616320830418816,-113
599616320838105088,-92
599616320845791360,-85
599616320853477632,-85
599616320861163904,-73
599616320868850176,-67
599616320876536448,-67
599616320884222720,-60
599616320891908992,-55
599616320899595392,-53
599616320907281664,-50
599616320914967936,-46
599616320922654208,-43
599616320930340480,-41
599616320938026752,-39
599616320945713024,-36
599616320953399296,-32
599616320961085568,-27
599616320968771840,-25
599616320976458240,-23
599616320984144512,-18
599616320991830784,-13
599616320999517056,-11
599616321007203328,-11
599616321014889600,-13
599616321022575872,-16
599616321030262144,-20
599616321037948416,-30
599616321045634816,-48
599616321053321088,-62
599616321061007360,-73
599616321068693632,-80
599616321076379904,-85
599616321084066176,-87
599616321091752448,-87
599616321099438720,-85
599616321107124992,-83
599616321114811392,-80
599616321122497664,-80
599616321130183936,-76
599616321137870208,-76
599616321145556480,-73
599616321153242752,-73
599616321160929024,-71
599616321168615296,-71
599616321176301568,-69
599616321183987840,-69
599616321191674240,-67
599616321199360512,-64
599616321207046784,-62
599616321214733056,-62
599616321222419328,-62
599616321230105600,-60
599616321237791872,-60
599616321245478144,-57
599616321253164416,-57
599616321260850816,-57
599616321268537088,-55
599616321276223360,-55
599616321283909632,-55
599616321291595904,-55
599616321299282176,-57
599616321306968448,-57
599616321314654720,-55
599616321322340992,-55
599616321330027392,-55
599616321337713664,-55
599616321345399857,-55
599616321353086464,-53
599616321360773120,-55
599616321368459904,-55
599616321376146560,-53
599616321383833216,-55
599616321391520000,-55
599616321399206656,-53
599616321406893440,-53
599616321414580096,-53
599616321422266752,-55
599616321429953536,-57
599616321437640192,-55
599616321445326848,-55
599616321453013632,-55
599616321460700288,-53
599616321468387072,-53
599616321476073728,-53
599616321483760384,-53
599616321491447168,-53
599616321499133824,-53
599616321506820480,-55
599616321514507264,-57
599616321522193920,-57
599616321529880704,-55
599616321537567360,-57
599616321545254016,-57
599616321552940800,-62
599616321560627456,-67
599616321568314112,-69
599616321576000896,-55
599616321583687552,-32
599616321591374336,-27
599616321599060992,-32
599616321606747648,-34
599616321614434432,-46
599616321622121088,-60
599616321629807744,-57
599616321637494528,-50
599616321645181184,-53
599616321652867968,-53
599616321660554624,-48
599616321668241280,-50
599616321675928064,-50
599616321683614720,-55
599616321691301376,-101
599616321698988160,-180
599616321706674816,-152
599616321714361600,101
599616321722048256,450
599616321729734912,513
599616321737421696,122
599616321745108352,-258
599616321752795008,-258
599616321760481792,-138
599616321768168448,-108
599616321775855232,-85
599616321783541888,-73
599616321791228544,-76
599616321798915328,-67
599616321806601984,-57
599616321814288640,-57
599616321821975424,-53
599616321829662080,-46
599616321837348864,-43
599616321845035520,-41
599616321852722176,-36
599616321860408960,-34
599616321868095616,-32
599616321875782272,-30
599616321883469056,-25
599616321891155712,-20
599616321898842496,-20
599616321906529236,-18
599616321914215552,-11
599616321921901824,-9
599616321929588096,-4
599616321937274368,0
599616321944960640,4
599616321952647040,2
599616321960333312,-2
599616321968019584,-6
599616321975705856,-13
599616321983392128,-30
599616321991078400,-53
599616321998764672,-69
599616322006450944,-76
599616322014137216,-87
599616322021823616,-92
599616322029509888,-92
599616322037196160,-90
599616322044882432,-90
599616322052568704,-87
599616322060254976,-83
599616322067941248,-80
599616322075627520,-80
599616322083313792,-78
599616322091000064,-76
599616322098686464,-76
599616322106372736,-76
599616322114059008,-71
599616322121745280,-69
599616322129431552,-69
599616322137117824,-67
599616322144804096,-64
599616322152490368,-64
599616322160176640,-62
599616322167863040,-60
599616322175549312,-62
599616322183235584,-60
599616322190921856,-60
599616322198608128,-60
599616322206294400,-57
599616322213980672,-57
599616322221666944,-60
599616322229353216,-60
599616322237039616,-57
599616322244725888,-57
599616322252412160,-57
599616322260098432,-57
599616322267784704,-57
599616322275470976,-60
599616322283157248,-60
599616322290843520,-60
599616322298529792,-57
599616322306216064,-55
599616322313902464,-55
599616322321588736,-60
599616322329275008,-60
599616322336961280,-57
599616322344647552,-55
599616322352333824,-57
599616322360020096,-57
599616322367706368,-55
599616322375392640,-55
599616322383079040,-55
599616322390765312,-55
599616322398451584,-55
599616322406137856,-57
599616322413824128,-62
599616322421510400,-67
599616322429196672,-62
599616322436882944,-41
599616322444569216,-27
599616322452255616,-32
599616322459941888,-39
599616322467628097,-48
599616322475314432,-60
599616322483000704,-62
599616322490686976,-55
599616322498373248,-55
599616322506059520,-60
599616322513745920,-57
599616322521432192,-57
599616322529118464,-57
599616322536804736,-57
599616322544491008,-78
599616322552177280,-150
599616322559863552,-194
599616322567549824,-43
599616322575236096,281
599616322582922496,473
599616322590608768,212
599616322598295040,-247
599616322605981312,-344
599616322613667584,-182
599616322621353856,-134
599616322629040128,-99
599616322636726400,-36
599616322644412672,-53
599616322652098944,-73
599616322659785344,-50
599616322667471616,-39
599616322675157888,-48
599616322682844160,-43
599616322690530432,-34
599616322698216704,-34
599616322705902976,-34
599616322713589248,-30
599616322721275520,-25
599616322728961920,-23
599616322736648192,-18
599616322744334464,-16
599616322752020736,-11
599616322759707008,-6
599616322767393280,0
599616322775079552,4
599616322782765824,6
599616322790452096,13
599616322798138496,18
599616322805824768,18
599616322813511040,18
599616322821197312,11
599616322828883584,-4
599616322836569856,-23
599616322844256128,-48
599616322851942400,-73
599616322859628672,-87
599616322867314944,-92
599616322875001344,-99
599616322882687616,-104
599616322890373888,-101
599616322898060160,-94
599616322905746432,-90
599616322913432704,-90
599616322921118976,-92
599616322928805248,-87
599616322936491520,-83
599616322944177920,-80
599616322951864192,-80
599616322959550464,-78
599616322967236736,-76
599616322974923008,-73
599616322982609280,-71
599616322990295552,-69
599616322997981824,-69
599616323005668096,-67
599616323013354496,-64
599616323021040768,-64
599616323028726958,-64
599616323036413568,-67
599616323044100224,-67
599616323051787008,-64
599616323059473664,-64
599616323067160320,-69
599616323074847104,-69
599616323082533760,-64
599616323090220544,-64
599616323097907200,-67
599616323105593856,-67
599616323113280640,-62
599616323120967296,-64
599616323128653952,-64
599616323136340736,-62
599616323144027392,-62
599616323151714176,-62
599616323159400832,-64
599616323167087488,-64
599616323174774272,-67
599616323182460928,-67
599616323190147584,-48
599616323197834368,-34
599616323205521024,-34
599616323213207808,-39
599616323220894464,-46
599616323228581120,-62
599616323236267904,-64
599616323243954560,-60
599616323251641216,-57
599616323259328000,-60
599616323267014656,-57
599616323274701440,-55
599616323282388096,-55
599616323290074752,-60
599616323297761536,-67
599616323305448192,-113
599616323313134848,-177
599616323320821632,-113
599616323328508288,154
599616323336195072,409
599616323343881728,293
599616323351568384,-136
599616323359255168,-342
599616323366941824,-214
599616323374628480,-129
599616323382315264,-108
599616323390001920,-41
599616323397688704,-32
599616323405375360,-64
599616323413062016,-50
599616323420748800,-34
599616323428435456,-43
599616323436122112,-43
599616323443808896,-32
599616323451495552,-32
599616323459182336,-32
599616323466868992,-30
599616323474555648,-27
599616323482242432,-25
599616323489929088,-20
599616323497615744,-16
599616323505302528,-11
599616323512989184,-6
599616323520675968,-4
599616323528362624,2
599616323536049280,9
599616323543736064,11
599616323551422720,13
599616323559109376,13
599616323566796160,11
599616323574482816,6
599616323582169600,-6
599616323589856341,-30
599616323597542656,-57
599616323605228928,-78
599616323612915200,-94
599616323620601472,-104
599616323628287744,-106
599616323635974144,-106
599616323643660416,-104
599616323651346688,-99
599616323659032960,-97
599616323666719232,-97
599616323674405504,-94
599616323682091776,-90
599616323689778048,-90
599616323697464320,-90
599616323705150720,-87
599616323712836992,-87
599616323720523264,-83
599616323728209536,-78
599616323735895808,-78
599616323743582080,-76
599616323751268352,-73
599616323758954624,-73
599616323766640896,-73
599616323774327168,-71
599616323782013568,-67
599616323789699840,-67
599616323797386112,-71
599616323805072384,-67
599616323812758656,-64
599616323820444928,-64
599616323828131200,-67
599616323835817472,-67
599616323843503744,-67
599616323851190144,-69
599616323858876416,-69
599616323866562688,-69
599616323874248960,-62
599616323881935232,-48
599616323889621504,-41
599616323897307776,-43
599616323904994048,-48
599616323912680320,-60
599616323920366720,-71
599616323928052992,-71
599616323935739264,-67
599616323943425536,-67
599616323951111808,-67
599616323958798080,-67
599616323966484352,-64
599616323974170624,-62
599616323981856896,-62
599616323989543168,-73
599616323997229568,-127
599616324004915840,-182
599616324012602112,-92
599616324020288384,177
599616324027974656,388
599616324035660928,224
599616324043347200,-182
599616324051033472,-328
599616324058719744,-198
599616324066406144,-131
599616324074092416,-104
599616324081778688,-43
599616324089464960,-48
599616324097151232,-71
599616324104837504,-53
599616324112523776,-43
599616324120210048,-50
599616324127896320,-46
599616324135582720,-36
599616324143268992,-39
599616324150955202,-36
599616324158641536,-32
599616324166327808,-32
599616324174014080,-27
599616324181700352,-18
599616324189386624,-20
599616324197073024,-18
599616324204759296,-9
599616324212445568,-2
599616324220131840,2
599616324227818112,9
599616324235504384,11
599616324243190656,13
599616324250876928,16
599616324258563200,11
599616324266249600,2
599616324273935872,-11
599616324281622144,-36
599616324289308416,-62
599616324296994688,-80
599616324304680960,-94
599616324312367232,-99
599616324320053504,-99
599616324327739776,-97
599616324335426048,-94
599616324343112448,-92
599616324350798720,-90
599616324358484992,-87
599616324366171264,-85
599616324373857536,-83
599616324381543808,-83
599616324389230080,-80
599616324396916352,-76
599616324404602624,-76
599616324412289024,-76
599616324419975296,-73
599616324427661568,-73
599616324435347840,-69
599616324443034112,-67
599616324450720384,-69
599616324458406656,-67
599616324466092928,-64
599616324473779200,-62
599616324481465600,-60
599616324489151872,-62
599616324496838144,-64
599616324504524416,-62
599616324512210688,-62
599616324519896960,-64
599616324527583232,-64
599616324535269504,-62
599616324542955776,-53
599616324550642048,-39
599616324558328448,-36
599616324566014720,-39
599616324573700992,-50
599616324581387264,-64
599616324589073536,-67
599616324596759808,-60
599616324604446080,-57
599616324612132352,-60
599616324619818624,-57
599616324627505024,-57
599616324635191296,-57
599616324642877568,-53
599616324650563840,-55
599616324658250112,-85
599616324665936384,-147
599616324673622656,-152
599616324681308928,20
599616324688995200,293
599616324696681600,355
599616324704367872,50
599616324712054063,-265
599616324719740672,-251
599616324727427328,-134
599616324735114112,-106
599616324742800768,-60
599616324750487424,-30
599616324758174208,-50
599616324765860864,-50
599616324773547648,-36
599616324781234304,-41
599616324788920960,-39
599616324796607744,-30
599616324804294400,-32
599616324811981056,-32
599616324819667840,-23
599616324827354496,-20
599616324835041280,-23
599616324842727936,-16
599616324850414592,-9
599616324858101376,-9
599616324865788032,-4
599616324873474688,2
599616324881161472,6
599616324888848128,9
599616324896534912,13
599616324904221568,18
599616324911908224,18
599616324919595008,18
599616324927281664,18
599616324934968320,9
599616324942655104,43
599616324950341760,101
599616324958028544,64
599616324965715200,6
599616324973401856,134
599616324981088640,446
599616324988775296,388
599616324996461952,-108
599616325004148736,-201
599616325011835392,-11
599616325019522176,-90
599616325027208832,-154
599616325034895488,-92
599616325042582272,-101
599616325050268928,-136
599616325057955584,-115
599616325065642368,-101
599616325073329024,-115
599616325081015808,-110
599616325088702464,-101
599616325096389120,-101
599616325104075904,-101
599616325111762560,-99
599616325119449216,-97
599616325127136000,-94
599616325134822656,-94
599616325142509440,-90
599616325150196096,-87
599616325157882752,-87
599616325165569536,-90
599616325173256192,-90
599616325180942848,-87
599616325188629632,-83
599616325196316288,-73
599616325204003072,-62
599616325211689728,-57
599616325219376384,-55
599616325227063168,-55
599616325234749824,-73
599616325242436480,-83
599616325250123264,-78
599616325257809920,-76
599616325265496704,-76
599616325273183442,-73
599616325280869760,-71
599616325288556032,-69
599616325296242304,-69
599616325303928576,-67
599616325311614848,-78
599616325319301248,-129
599616325326987520,-182
599616325334673792,-99
599616325342360064,145
599616325350046336,339
599616325357732608,201
599616325365418880,-152
599616325373105152,-286
599616325380791424,-180
599616325388477824,-122
599616325396164096,-101
599616325403850368,-53
599616325411536640,-53
599616325419222912,-69
599616325426909184,-50
599616325434595456,-43
599616325442281728,-53
599616325449968000,-48
599616325457654272,-36
599616325465340672,-39
599616325473026944,-39
599616325480713216,-27
599616325488399488,-25
599616325496085760,-30
599616325503772032,-25
599616325511458304,-16
599616325519144576,-16
599616325526830848,-13
599616325534517248,-4
599616325542203520,-2
599616325549889792,0
599616325557576064,2
599616325565262336,6
599616325572948608,4
599616325580634880,2
599616325588321152,-6
599616325596007424,-27
599616325603693824,-48
599616325611380096,-67
599616325619066368,-83
599616325626752640,-90
599616325634438912,-90
599616325642125184,-92
599616325649811456,-94
599616325657497728,-90
599616325665184000,-83
599616325672870272,-85
599616325680556672,-80
599616325688242944,-76
599616325695929216,-76
599616325703615488,-76
599616325711301760,-76
599616325718988032,-71
599616325726674304,-64
599616325734360576,-64
599616325742046848,-64
599616325749733248,-64
599616325757419520,-69
599616325765105792,-69
599616325772792064,-67
599616325780478336,-64
599616325788164608,-69
599616325795850880,-76
599616325803537152,-71
599616325811223424,-64
599616325818909824,-67
599616325826596096,-73
599616325834282303,-69
599616325841968512,-64
599616325849654784,-69
599616325857341056,-67
599616325865027328,-53
599616325872713600,-43
599616325880400000,-41
599616325888086272,-41
599616325895772544,-53
599616325903458816,-67
599616325911145088,-69
599616325918831360,-64
599616325926517632,-57
599616325934203904,-57
599616325941890176,-57
599616325949576576,-55
599616325957262848,-55
599616325964949120,-55
599616325972635392,-53
599616325980321664,-71
599616325988007936,-129
599616325995694208,-159
599616326003380480,-30
599616326011066752,219
599616326018753024,337
599616326026439424,124
599616326034125696,-187
599616326041811968,-235
599616326049498240,-134
599616326057184512,-106
599616326064870784,-78
599616326072557056,-41
599616326080243328,-48
599616326087929600,-50
599616326095616000,-39
599616326103302272,-39
599616326110988544,-39
599616326118674816,-27
599616326126361088,-27
599616326134047360,-30
599616326141733632,-25
599616326149419904,-20
599616326157106176,-18
599616326164792576,-11
599616326172478848,-9
599616326180165120,-9
599616326187851392,0
599616326195537664,4
599616326203223936,4
599616326210910208,11
599616326218596480,18
599616326226282752,18
599616326233969024,20
599616326241655424,23
599616326249341696,13
599616326257027968,2
599616326264714240,-13
599616326272400512,-34
599616326280086784,-48
599616326287773056,-55
599616326295459328,-67
599616326303145600,-71
599616326310832000,-71
599616326318518272,-69
599616326326204544,-67
599616326333890816,-67
599616326341577088,-64
599616326349263360,-57
599616326356949632,-57
599616326364635904,-60
599616326372322176,-60
599616326380008576,-55
599616326387694848,-55
599616326395381164,-55
599616326403067776,-53
599616326410754432,-55
599616326418441216,-53
599616326426127872,-50
599616326433814528,-50
599616326441501312,-46
599616326449187968,-48
599616326456874752,-50
599616326464561408,-46
599616326472248064,-46
599616326479934848,-48
599616326487621504,-48
599616326495308160,-43
599616326502994944,-39
599616326510681600,-43
599616326518368384,-48
599616326526055040,-43
599616326533741696,-41
599616326541428480,-43
599616326549115136,-43
599616326556801792,-43
599616326564488576,-48
599616326572175232,-48
599616326579862016,-48
599616326587548672,-50
599616326595235328,-48
599616326602922112,-36
599616326610608768,-27
599616326618295424,-23
599616326625982208,-20
599616326633668864,-23
599616326641355648,-36
599616326649042304,-48
599616326656728960,-48
599616326664415744,-41
599616326672102400,-41
599616326679789056,-41
599616326687475840,-39
599616326695162496,-39
599616326702849280,-39
599616326710535936,-36
599616326718222592,-36
599616326725909376,-67
599616326733596032,-122
599616326741282688,-97
599616326748969472,99
599616326756656128,353
599616326764342912,381
599616326772029568,57
599616326779716224,-231
599616326787403008,-182
599616326795089664,-83
599616326802776320,-85
599616326810463104,-57
599616326818149760,-32
599616326825836544,-48
599616326833523200,-48
599616326841209856,-32
599616326848896640,-30
599616326856583296,-34
599616326864269952,-27
599616326871956736,-25
599616326879643392,-27
599616326887330176,-23
599616326895016832,-16
599616326902703488,-13
599616326910390272,-11
599616326918076928,-9
599616326925763584,-6
599616326933450368,0
599616326941137024,2
599616326948823808,4
599616326956510547,9
599616326964196864,13
599616326971883136,13
599616326979569408,16
599616326987255680,16
599616326994941952,11
599616327002628352,-2
599616327010314624,-18
599616327018000896,-36
599616327025687168,-50
599616327033373440,-62
599616327041059712,-69
599616327048745984,-71
599616327056432256,-69
599616327064118528,-71
599616327071804928,-71
599616327079491200,-67
599616327087177472,-67
599616327094863744,-67
599616327102550016,-60
599616327110236288,-60
599616327117922560,-60
599616327125608832,-57
599616327133295104,-53
599616327140981376,-57
599616327148667776,-55
599616327156354048,-50
599616327164040320,-48
599616327171726592,-48
599616327179412864,-46
599616327187099136,-43
599616327194785408,-41
599616327202471680,-43
599616327210157952,-46
599616327217844352,-46
599616327225530624,-43
599616327233216896,-41
599616327240903168,-41
599616327248589440,-41
599616327256275712,-41
599616327263961984,-39
599616327271648256,-39
599616327279334528,-41
599616327287020928,-39
599616327294707200,-36
599616327302393472,-39
599616327310079744,-39
599616327317766016,-39
599616327325452288,-39
599616327333138560,-36
599616327340824832,-36
599616327348511104,-39
599616327356197376,-39
599616327363883776,-34
599616327371570048,-34
599616327379256320,-36
599616327386942592,-34
599616327394628864,-34
599616327402315136,-36
599616327410001408,-34
599616327417687680,-34
599616327425373952,-36
599616327433060352,-34
599616327440746624,-36
599616327448432896,-39
599616327456119168,-39
599616327463805440,-36
599616327471491712,-36
599616327479177984,-39
599616327486864256,-36
599616327494550528,-36
599616327502236928,-34
599616327509923200,-36
599616327517609408,-36
599616327525296000,-34
599616327532982528,-34
599616327540668928,-36
599616327548355456,-36
599616327556041984,-32
599616327563728512,-34
599616327571414912,-39
599616327579101440,-39
599616327586787968,-36
599616327594474496,-36
599616327602160896,-39
599616327609847424,-39
599616327617533952,-36
599616327625220480,-39
599616327632906880,-39
599616327640593408,-34
599616327648279936,-36
599616327655966464,-46
599616327663652864,-46
599616327671339392,-32
599616327679025920,-16
599616327686712448,-11
599616327694398848,-16
599616327702085376,-20
599616327709771904,-30
599616327717458432,-43
599616327725144832,-41
599616327732831360,-32
599616327740517888,-32
599616327748204288,-34
599616327755890816,-30
599616327763577344,-25
599616327771263872,-16
599616327778950272,-9
599616327786636800,-36
599616327794323328,-106
599616327802009856,-117
599616327809696256,53
599616327817382784,337
599616327825069312,429
599616327832755840,159
599616327840442240,-157
599616327848128768,-184
599616327855815296,-92
599616327863501824,-76
599616327871188224,-50
599616327878874752,-20
599616327886561280,-30
599616327894247808,-32
599616327901934208,-16
599616327909620736,-16
599616327917307264,-18
599616327924993792,-9
599616327932680192,-4
599616327940366720,-6
599616327948053248,-4
599616327955739648,-2
599616327963426176,0
599616327971112704,2
599616327978799232,2
599616327986485632,2
599616327994172160,4
599616328001858688,9
599616328009545216,11
599616328017231616,11
599616328024918144,11
599616328032604672,13
599616328040291200,16
599616328047977600,16
599616328055664128,16
599616328063350656,13
599616328071037184,4
599616328078723530,-9
599616328086410112,-23
599616328094096640,-34
599616328101783040,-43
599616328109469568,-50
599616328117156096,-53
599616328124842624,-55
599616328132529024,-60
599616328140215552,-62
599616328147902080,-57
599616328155588608,-53
599616328163275008,-53
599616328170961536,-55
599616328178648064,-50
599616328186334592,-48
599616328194020992,-48
599616328201707520,-48
599616328209394048,-46
599616328217080576,-48
599616328224766976,-48
599616328232453504,-43
599616328240140032,-43
599616328247826560,-41
599616328255512960,-41
599616328263199488,-43
599616328270886016,-41
599616328278572544,-39
599616328286258944,-41
599616328293945472,-43
599616328301632000,-41
599616328309318400,-39
599616328317004928,-39
599616328324691456,-41
599616328332377984,-39
599616328340064384,-36
599616328347750912,-39
599616328355437440,-39
599616328363123968,-39
599616328370810368,-36
599616328378496896,-36
599616328386183424,-36
599616328393869952,-36
599616328401556352,-39
599616328409242880,-39
599616328416929408,-34
599616328424615936,-32
599616328432302336,-36
599616328439988864,-36
599616328447675392,-36
599616328455361920,-36
599616328463048320,-34
599616328470734848,-36
599616328478421376,-36
599616328486107776,-34
599616328493794304,-34
599616328501480832,-36
599616328509167360,-39
599616328516853760,-36
599616328524540288,-36
599616328532226816,-36
599616328539913344,-39
599616328547599744,-36
599616328555286272,-36
599616328562972800,-36
599616328570659328,-41
599616328578345728,-43
599616328586032256,-43
599616328593718784,-43
599616328601405312,-41
599616328609091712,-41
599616328616778240,-43
599616328624464768,-43
599616328632151296,-43
599616328639837648,-43
599616328647523968,-43
599616328655210240,-41
599616328662896512,-43
599616328670582784,-50
599616328678269056,-53
599616328685955456,-43
599616328693641728,-23
599616328701328000,-16
599616328709014272,-23
599616328716700544,-25
599616328724386816,-32
599616328732073088,-46
599616328739759360,-53
599616328747445632,-46
599616328755132032,-41
599616328762818304,-41
599616328770504576,-43
599616328778190848,-43
599616328785877120,-39
599616328793563392,-41
599616328801249664,-57
599616328808935936,-110
599616328816622208,-166
599616328824308480,-71
599616328831994880,219
599616328839681152,462
599616328847367424,337
599616328855053696,-50
599616328862739968,-235
599616328870426240,-157
599616328878112512,-99
599616328885798784,-92
599616328893485056,-67
599616328901171456,-57
599616328908857728,-64
599616328916544000,-55
599616328924230272,-46
599616328931916544,-43
599616328939602816,-41
599616328947289088,-34
599616328954975360,-34
599616328962661632,-34
599616328970348032,-32
599616328978034304,-27
599616328985720576,-25
599616328993406848,-20
599616329001093120,-20
599616329008779392,-23
599616329016465664,-18
599616329024151936,-13
599616329031838208,-13
599616329039524480,-11
599616329047210880,-4
599616329054897152,-2
599616329062583424,-2
599616329070269696,-2
599616329077955968,-4
599616329085642240,-9
599616329093328512,-16
599616329101014784,-34
599616329108701056,-50
599616329116387456,-62
599616329124073728,-67
599616329131760000,-73
599616329139446272,-78
599616329147132544,-76
599616329154818816,-76
599616329162505088,-80
599616329170191360,-78
599616329177877632,-73
599616329185564032,-73
599616329193250304,-76
599616329200936509,-97
599616329208622720,-175
599616329216308992,-238
599616329223995264,-168
599616329231681536,-62
599616329239367808,-60
599616329247054208,-83
599616329254740480,-60
599616329262426752,-53
599616329270113024,-64
599616329277799296,-60
599616329285485568,-50
599616329293171840,-53
599616329300858112,-53
599616329308544384,-48
599616329316230784,-48
599616329323917056,-48
599616329331603328,-48
599616329339289600,-48
599616329346975872,-48
599616329354662144,-48
599616329362348416,-48
599616329370034688,-50
599616329377720960,-50
599616329385407232,-48
599616329393093632,-48
599616329400779904,-48
599616329408466176,-48
599616329416152448,-48
599616329423838720,-48
599616329431524992,-48
599616329439211264,-48
599616329446897536,-48
599616329454583808,-48
599616329462270208,-50
599616329469956480,-50
599616329477642752,-50
599616329485329024,-50
599616329493015296,-53
599616329500701568,-50
599616329508387840,-50
599616329516074112,-53
599616329523760384,-53
599616329531446784,-53
599616329539133056,-53
599616329546819328,-53
599616329554505600,-55
599616329562191872,-55
599616329569878144,-55
599616329577564416,-57
599616329585250688,-57
599616329592936960,-55
599616329600623232,-55
599616329608309632,-55
599616329615995904,-55
599616329623682176,-55
599616329631368448,-55
599616329639054720,-53
599616329646740992,-55
599616329654427264,-55
599616329662113536,-57
599616329669799808,-64
599616329677486208,-67
599616329685172480,-55
599616329692858752,-36
599616329700545024,-32
599616329708231296,-36
599616329715917568,-39
599616329723603840,-43
599616329731290112,-60
599616329738976384,-64
599616329746662784,-55
599616329754349056,-55
599616329762035370,-57
599616329769721984,-55
599616329777408640,-55
599616329785095424,-55
599616329792782080,-57
599616329800468736,-76
599616329808155520,-145
599616329815842176,-191
599616329823528960,-57
599616329831215616,265
599616329838902272,487
599616329846589056,295
599616329854275712,-117
599616329861962368,-270
599616329869649152,-171
599616329877335808,-115
599616329885022592,-113
599616329892709248,-90
599616329900395904,-80
599616329908082688,-83
599616329915769344,-71
599616329923456000,-64
599616329931142784,-62
599616329938829440,-60
599616329946516224,-55
599616329954202880,-53
599616329961889536,-50
599616329969576320,-50
599616329977262976,-48
599616329984949632,-43
599616329992636416,-43
599616330000323072,-41
599616330008009856,-39
599616330015696512,-39
599616330023383168,-36
599616330031069952,-32
599616330038756608,-27
599616330046443264,-23
599616330054130048,-20
599616330061816704,-20
599616330069503488,-20
599616330077190144,-23
599616330084876800,-30
599616330092563584,-36
599616330100250240,-50
599616330107936896,-64
599616330115623680,-78
599616330123310336,-85
599616330130997120,-87
599616330138683776,-90
599616330146370432,-92
599616330154057216,-92
599616330161743872,-90
599616330169430528,-87
599616330177117312,-85
599616330184803968,-83
599616330192490752,-83
599616330200177408,-80
599616330207864064,-80
599616330215550848,-80
599616330223237504,-76
599616330230924160,-76
599616330238610944,-76
599616330246297600,-76
599616330253984384,-73
599616330261671040,-69
599616330269357696,-71
599616330277044480,-71
599616330284731136,-69
599616330292417792,-67
599616330300104576,-67
599616330307791232,-67
599616330315478016,-64
599616330323164753,-64
599616330330851072,-64
599616330338537344,-62
599616330346223616,-62
599616330353909888,-62
599616330361596160,-62
599616330369282560,-62
599616330376968832,-62
599616330384655104,-64
599616330392341376,-67
599616330400027648,-67
599616330407713920,-64
599616330415400192,-64
599616330423086464,-64
599616330430772736,-64
599616330438459136,-64
599616330446145408,-62
599616330453831680,-62
599616330461517952,-62
599616330469204224,-62
599616330476890496,-62
599616330484576768,-62
599616330492263040,-60
599616330499949312,-60
599616330507635584,-60
599616330515321984,-60
599616330523008256,-60
599616330530694528,-60
599616330538380800,-60
599616330546067072,-60
599616330553753344,-57
599616330561439616,-57
599616330569125888,-60
599616330576812160,-60
599616330584498560,-60
599616330592184832,-62
599616330599871104,-62
599616330607557376,-60
599616330615243648,-60
599616330622929920,-62
599616330630616192,-62
599616330638302464,-60
599616330645988736,-62
599616330653675136,-64
599616330661361408,-69
599616330669047680,-73
599616330676733952,-57
599616330684420224,-36
599616330692106496,-32
599616330699792768,-36
599616330707479040,-43
599616330715165312,-55
599616330722851584,-67
599616330730537984,-62
599616330738224256,-55
599616330745910528,-57
599616330753596800,-60
599616330761283072,-55
599616330768969344,-55
599616330776655616,-55
599616330784341888,-60
599616330792028160,-99
599616330799714560,-177
599616330807400832,-168
599616330815087104,60
599616330822773376,406
599616330830459648,506
599616330838145920,161
599616330845832192,-224
599616330853518464,-256
599616330861204736,-138
599616330868891136,-108
599616330876577408,-104
599616330884263614,-85
599616330891949824,-83
599616330899636096,-78
599616330907322368,-69
599616330915008640,-64
599616330922694912,-62
599616330930381312,-57
599616330938067584,-53
599616330945753856,-50
599616330953440128,-48
599616330961126400,-46
599616330968812672,-43
599616330976498944,-43
599616330984185216,-41
599616330991871488,-41
599616330999557888,-39
599616331007244160,-34
599616331014930432,-30
599616331022616704,-27
599616331030302976,-25
599616331037989248,-23
599616331045675520,-18
599616331053361792,-18
599616331061048064,-18
599616331068734336,-18
599616331076420736,-25
599616331084107008,-39
599616331091793280,-57
599616331099479552,-69
599616331107165824,-78
599616331114852096,-85
599616331122538368,-90
599616331130224640,-92
599616331137910912,-92
599616331145597312,-90
599616331153283584,-87
599616331160969856,-85
599616331168656128,-83
599616331176342400,-83
599616331184028672,-80
599616331191714944,-78
599616331199401216,-78
599616331207087488,-76
599616331214773888,-73
599616331222460160,-73
599616331230146432,-73
599616331237832704,-71
599616331245518976,-69
599616331253205248,-69
599616331260891520,-69
599616331268577792,-67
599616331276264064,-67
599616331283950336,-64
599616331291636736,-64
599616331299323008,-62
599616331307009280,-62
599616331314695552,-62
599616331322381824,-62
599616331330068096,-62
599616331337754368,-62
599616331345440640,-62
599616331353126912,-62
599616331360813312,-62
599616331368499584,-62
599616331376185856,-64
599616331383872128,-64
599616331391558400,-62
599616331399244672,-62
599616331406930944,-64
599616331414617216,-64
599616331422303488,-62
599616331429989888,-62
599616331437676160,-64
599616331445362475,-64
599616331453048704,-62
599616331460734976,-62
599616331468421248,-64
599616331476107520,-62
599616331483793792,-60
599616331491480192,-62
599616331499166464,-67
599616331506852736,-67
599616331514539008,-64
599616331522225280,-62
599616331529911552,-64
599616331537597824,-64
599616331545284096,-64
599616331552970368,-62
599616331560656768,-62
599616331568343040,-62
599616331576029312,-62
599616331583715584,-60
599616331591401856,-64
599616331599088128,-69
599616331606774400,-69
599616331614460672,-71
599616331622146944,-76
599616331629833216,-71
599616331637519616,-53
599616331645205888,-36
599616331652892160,-36
599616331660578432,-39
599616331668264704,-46
599616331675950976,-64
599616331683637248,-69
599616331691323520,-57
599616331699009792,-55
599616331706696192,-60
599616331714382464,-60
599616331722068736,-57
599616331729755008,-57
599616331737441280,-57
599616331745127552,-69
599616331752813824,-127
599616331760500096,-194
599616331768186368,-108
599616331775872768,201
599616331783559040,508
599616331791245312,427
599616331798931584,-18
599616331806617856,-293
599616331814304128,-219
599616331821990400,-124
599616331829676672,-108
599616331837362944,-90
599616331845049216,-80
599616331852735616,-80
599616331860421888,-71
599616331868108160,-64
599616331875794432,-62
599616331883480704,-57
599616331891166976,-53
599616331898853248,-50
599616331906539520,-46
599616331914225792,-43
599616331921912192,-41
599616331929598464,-36
599616331937284736,-34
599616331944971008,-32
599616331952657280,-30
599616331960343552,-25
599616331968029824,-23
599616331975716096,-20
599616331983402368,-13
599616331991088768,-9
599616331998775040,-6
599616332006461336,-6
599616332014147968,-4
599616332021834624,-4
599616332029521280,-9
599616332037207808,-23
599616332044894464,-39
599616332052581120,-55
599616332060267776,-71
599616332067954432,-83
599616332075641088,-87
599616332083327616,-90
599616332091014272,-90
599616332098700928,-94
599616332106387584,-94
599616332114074240,-87
599616332121760896,-85
599616332129447424,-87
599616332137134080,-87
599616332144820736,-83
599616332152507392,-78
599616332160194048,-78
599616332167880704,-78
599616332175567232,-73
599616332183253888,-71
599616332190940544,-73
599616332198627200,-71
599616332206313856,-67
599616332214000512,-67
599616332221687040,-67
599616332229373696,-64
599616332237060352,-64
599616332244747008,-64
599616332252433664,-62
599616332260120320,-62
599616332267806848,-60
599616332275493504,-62
599616332283180160,-64
599616332290866816,-62
599616332298553472,-62
599616332306240128,-62
599616332313926656,-62
599616332321613312,-62
599616332329299968,-62
599616332336986624,-62
599616332344673280,-60
599616332352359936,-60
599616332360046464,-60
599616332367733120,-62
599616332375419776,-60
599616332383106432,-60
599616332390793088,-60
599616332398479616,-62
599616332406166272,-60
599616332413852928,-57
599616332421539584,-57
599616332429226240,-62
599616332436912896,-60
599616332444599424,-57
599616332452286080,-60
599616332459972736,-60
599616332467659392,-60
599616332475346048,-60
599616332483032704,-57
599616332490719232,-60
599616332498405888,-64
599616332506092544,-69
599616332513779200,-60
599616332521465856,-43
599616332529152512,-32
599616332536839040,-32
599616332544525696,-41
599616332552212352,-55
599616332559899008,-67
599616332567585632,-64
599616332575272064,-60
599616332582958464,-60
599616332590644736,-57
599616332598331136,-57
599616332606017536,-62
599616332613703808,-62
599616332621390208,-60
599616332629076608,-85
599616332636762880,-161
599616332644449280,-184
599616332652135680,-2
599616332659821952,321
599616332667508352,448
599616332675194624,129
599616332682881024,-291
599616332690567424,-318
599616332698253696,-164
599616332705940096,-131
599616332713626496,-87
599616332721312768,-36
599616332728999168,-62
599616332736685568,-71
599616332744371840,-46
599616332752058240,-48
599616332759744640,-53
599616332767430912,-43
599616332775117312,-39
599616332782803712,-41
599616332790489984,-36
599616332798176384,-32
599616332805862784,-32
599616332813549056,-27
599616332821235456,-20
599616332828921856,-20
599616332836608128,-16
599616332844294528,-11
599616332851980800,-6
599616332859667200,0
599616332867353600,6
599616332875039872,11
599616332882726272,13
599616332890412672,16
599616332898098944,16
599616332905785344,9
599616332913471744,-4
599616332921158016,-27
599616332928844416,-55
599616332936530816,-78
599616332944217088,-94
599616332951903488,-101
599616332959589888,-104
599616332967276160,-104
599616332974962560,-104
599616332982648960,-99
599616332990335232,-97
599616332998021632,-94
599616333005707904,-92
599616333013394304,-90
599616333021080704,-87
599616333028766976,-87
599616333036453376,-85
599616333044139776,-83
599616333051826048,-80
599616333059512448,-78
599616333067198848,-78
599616333074885120,-76
599616333082571520,-73
599616333090257920,-69
599616333097944192,-67
599616333105630592,-64
599616333113316992,-67
599616333121003264,-71
599616333128689576,-67
599616333136375808,-64
599616333144062080,-67
599616333151748352,-69
599616333159434624,-67
599616333167120896,-67
599616333174807296,-67
599616333182493568,-69
599616333190179840,-67
599616333197866112,-64
599616333205552384,-69
599616333213238656,-69
599616333220924928,-67
599616333228611200,-67
599616333236297472,-67
599616333243983872,-69
599616333251670144,-71
599616333259356416,-73
599616333267042688,-60
599616333274728960,-41
599616333282415232,-39
599616333290101504,-43
599616333297787776,-48
599616333305474048,-62
599616333313160320,-73
599616333320846720,-67
599616333328532992,-62
599616333336219264,-64
599616333343905536,-64
599616333351591808,-62
599616333359278080,-62
599616333366964352,-62
599616333374650624,-60
599616333382336896,-85
599616333390023296,-157
599616333397709568,-180
599616333405395840,-13
599616333413082112,286
599616333420768384,397
599616333428454656,94
599616333436140928,-288
599616333443827200,-305
599616333451513472,-161
599616333459199872,-129
599616333466886144,-76
599616333474572416,-27
599616333482258688,-55
599616333489944960,-64
599616333497631232,-41
599616333505317504,-43
599616333513003776,-46
599616333520690048,-39
599616333528376448,-39
599616333536062720,-39
599616333543748992,-32
599616333551435264,-30
599616333559121536,-30
599616333566807808,-25
599616333574494080,-20
599616333582180352,-16
599616333589866624,-11
599616333597552896,-6
599616333605239296,0
599616333612925568,4
599616333620611840,6
599616333628298112,11
599616333635984384,16
599616333643670656,16
599616333651356928,13
599616333659043200,4
599616333666729472,-16
599616333674415872,-43
599616333682102144,-69
599616333689788441,-85
599616333697474688,-97
599616333705160960,-104
599616333712847232,-108
599616333720533504,-108
599616333728219776,-106
599616333735906176,-99
599616333743592448,-94
599616333751278720,-97
599616333758964992,-94
599616333766651264,-90
599616333774337536,-87
599616333782023808,-90
599616333789710080,-90
599616333797396352,-87
599616333805082752,-85
599616333812769024,-80
599616333820455296,-78
599616333828141568,-78
599616333835827840,-76
599616333843514112,-76
599616333851200384,-73
599616333858886656,-71
599616333866572928,-71
599616333874259200,-69
599616333881945600,-69
599616333889631872,-69
599616333897318144,-69
599616333905004416,-69
599616333912690688,-67
599616333920376960,-69
599616333928063232,-71
599616333935749504,-71
599616333943435776,-73
599616333951122176,-71
599616333958808448,-60
599616333966494720,-43
599616333974180992,-41
599616333981867264,-41
599616333989553536,-48
599616333997239808,-67
599616334004926080,-73
599616334012612352,-67
599616334020298752,-64
599616334027985024,-62
599616334035671296,-57
599616334043357568,-60
599616334051043840,-64
599616334058730112,-62
599616334066416384,-64
599616334074102656,-85
599616334081788928,-143
599616334089475200,-177
599616334097161600,-50
599616334104847872,231
599616334112534144,379
599616334120220416,136
599616334127906688,-249
599616334135592960,-309
599616334143279232,-171
599616334150965504,-129
599616334158651776,-90
599616334166338176,-36
599616334174024448,-55
599616334181710720,-73
599616334189396992,-50
599616334197083264,-43
599616334204769536,-50
599616334212455808,-46
599616334220142080,-39
599616334227828352,-41
599616334235514752,-39
599616334243201024,-32
599616334250887302,-32
599616334258573952,-32
599616334266260608,-23
599616334273947392,-16
599616334281634048,-16
599616334289320704,-13
599616334297007488,-4
599616334304694144,0
599616334312380928,4
599616334320067584,9
599616334327754240,9
599616334335441024,13
599616334343127680,6
599616334350814336,-9
599616334358501120,-20
599616334366187776,-43
599616334373874560,-71
599616334381561216,-90
599616334389247872,-99
599616334396934656,-106
599616334404621312,-108
599616334412307968,-108
599616334419994752,-106
599616334427681408,-99
599616334435368192,-94
599616334443054848,-94
599616334450741504,-94
599616334458428288,-90
599616334466114944,-90
599616334473801600,-92
599616334481488384,-85
599616334489175040,-80
599616334496861824,-80
599616334504548480,-83
599616334512235136,-78
599616334519921920,-73
599616334527608576,-76
599616334535295232,-78
599616334542982016,-71
599616334550668672,-67
599616334558355456,-73
599616334566042112,-71
599616334573728768,-64
599616334581415552,-64
599616334589102208,-69
599616334596788864,-69
599616334604475648,-69
599616334612162304,-69
599616334619849088,-71
599616334627535744,-69
599616334635222400,-57
599616334642909184,-48
599616334650595840,-48
599616334658282496,-46
599616334665969280,-53
599616334673655936,-71
599616334681342720,-73
599616334689029376,-69
599616334696716032,-69
599616334704402816,-67
599616334712089472,-62
599616334719776128,-64
599616334727462912,-64
599616334735149568,-62
599616334742836352,-64
599616334750523008,-94
599616334758209664,-157
599616334765896448,-154
599616334773583104,32
599616334781269760,293
599616334788956544,323
599616334796643200,4
599616334804329984,-281
599616334812016681,-242
599616334819702912,-134
599616334827389184,-113
599616334835075456,-67
599616334842761728,-34
599616334850448000,-57
599616334858134400,-60
599616334865820672,-43
599616334873506944,-46
599616334881193216,-46
599616334888879488,-41
599616334896565760,-41
599616334904252032,-41
599616334911938304,-36
599616334919624576,-30
599616334927310976,-30
599616334934997248,-27
599616334942683520,-20
599616334950369792,-18
599616334958056064,-16
599616334965742336,-9
599616334973428608,-2
599616334981114880,2
599616334988801152,4
599616334996487424,6
599616335004173824,13
599616335011860096,13
599616335019546368,2
599616335027232640,-6
599616335034918912,-23
599616335042605184,-50
599616335050291456,-69
599616335057977728,-80
599616335065664000,-87
599616335073350400,-92
599616335081036672,-90
599616335088722944,-87
599616335096409216,-90
599616335104095488,-87
599616335111781760,-85
599616335119468032,-80
599616335127154304,-80
599616335134840576,-85
599616335142526976,-80
599616335150213248,-76
599616335157899520,-78
599616335165585792,-76
599616335173272064,-71
599616335180958336,-71
599616335188644608,-69
599616335196330880,-69
599616335204017152,-69
599616335211703424,-69
599616335219389824,-64
599616335227076096,-62
599616335234762368,-62
599616335242448640,-62
599616335250134912,-62
599616335257821184,-64
599616335265507456,-62
599616335273193728,-57
599616335280880000,-62
599616335288566400,-64
599616335296252672,-62
599616335303938944,-55
599616335311625216,-39
599616335319311488,-34
599616335326997760,-39
599616335334684032,-36
599616335342370304,-48
599616335350056576,-64
599616335357742976,-60
599616335365429248,-53
599616335373115542,-55
599616335380801792,-57
599616335388488064,-53
599616335396174336,-55
599616335403860608,-50
599616335411546880,-46
599616335419233280,-55
599616335426919552,-92
599616335434605824,-152
599616335442292096,-143
599616335449978368,36
599616335457664640,293
599616335465350912,323
599616335473037184,25
599616335480723456,-247
599616335488409856,-221
599616335496096128,-124
599616335503782400,-101
599616335511468672,-62
599616335519154944,-39
599616335526841216,-55
599616335534527488,-53
599616335542213760,-36
599616335549900032,-39
599616335557586304,-41
599616335565272704,-34
599616335572958976,-34
599616335580645248,-32
599616335588331520,-25
599616335596017792,-25
599616335603704064,-25
599616335611390336,-20
599616335619076608,-13
599616335626762880,-11
599616335634449280,-11
599616335642135552,-9
599616335649821824,-2
599616335657508096,4
599616335665194368,4
599616335672880640,9
599616335680566912,16
599616335688253184,13
599616335695939456,13
599616335703625856,16
599616335711312128,13
599616335718998400,-2
599616335726684672,-23
599616335734370944,-36
599616335742057216,-41
599616335749743488,-46
599616335757429760,-46
599616335765116032,-50
599616335772802304,-60
599616335780488704,-55
599616335788174976,-50
599616335795861248,-55
599616335803547520,-62
599616335811233792,-64
599616335818920064,-69
599616335826606336,-69
599616335834292608,-62
599616335841978880,-64
599616335849665280,-69
599616335857351552,-69
599616335865037824,-67
599616335872724096,-71
599616335880410368,-76
599616335888096640,-73
599616335895782912,-71
599616335903469184,-73
599616335911155456,-73
599616335918841856,-67
599616335926528128,-69
599616335934214403,-71
599616335941901056,-69
599616335949587712,-69
599616335957274496,-69
599616335964961152,-71
599616335972647808,-76
599616335980334592,-71
599616335988021248,-67
599616335995708032,-76
599616336003394688,-83
599616336011081344,-73
599616336018768128,-57
599616336026454784,-48
599616336034141440,-50
599616336041828224,-53
599616336049514880,-62
599616336057201664,-73
599616336064888320,-78
599616336072574976,-71
599616336080261760,-62
599616336087948416,-67
599616336095635072,-69
599616336103321856,-64
599616336111008512,-67
599616336118695296,-64
599616336126381952,-62
599616336134068608,-78
599616336141755392,-138
599616336149442048,-177
599616336157128704,-69
599616336164815488,180
599616336172502144,335
599616336180188928,161
599616336187875584,-166
599616336195562240,-251
599616336203249024,-150
599616336210935680,-110
599616336218622336,-94
599616336226309120,-55
599616336233995776,-55
599616336241682560,-67
599616336249369216,-50
599616336257055872,-43
599616336264742656,-48
599616336272429312,-41
599616336280115968,-36
599616336287802752,-36
599616336295489408,-34
599616336303176192,-30
599616336310862848,-25
599616336318549504,-23
599616336326236288,-20
599616336333922944,-18
599616336341609600,-16
599616336349296384,-13
599616336356983040,-9
599616336364669824,-4
599616336372356480,0
599616336380043136,4
599616336387729920,9
599616336395416576,6
599616336403103232,2
599616336410790016,0
599616336418476672,-16
599616336426163456,-39
599616336433850112,-53
599616336441536768,-67
599616336449223552,-78
599616336456910208,-78
599616336464596864,-80
599616336472283648,-83
599616336479970304,-80
599616336487657088,-78
599616336495343786,-76
599616336503030016,-73
599616336510716288,-71
599616336518402560,-71
599616336526088832,-69
599616336533775104,-71
599616336541461504,-73
599616336549147776,-71
599616336556834048,-69
599616336564520320,-67
599616336572206592,-62
599616336579892864,-64
599616336587579136,-62
599616336595265408,-60
599616336602951680,-60
599616336610638080,-60
599616336618324352,-57
599616336626010624,-55
599616336633696896,-55
599616336641383168,-57
599616336649069440,-57
599616336656755712,-57
599616336664441984,-57
599616336672128256,-57
599616336679814528,-55
599616336687500928,-53
599616336695187200,-55
599616336702873472,-55
599616336710559744,-50
599616336718246016,-48
599616336725932288,-53
599616336733618560,-50
599616336741304832,-46
599616336748991104,-53
599616336756677504,-53
599616336764363776,-46
599616336772050048,-48
599616336779736320,-48
599616336787422592,-48
599616336795108864,-46
599616336802795136,-46
599616336810481408,-48
599616336818167680,-48
599616336825854080,-46
599616336833540352,-43
599616336841226624,-43
599616336848912896,-46
599616336856599168,-48
599616336864285440,-48
599616336871971712,-48
599616336879657984,-50
599616336887344256,-39
599616336895030528,-23
599616336902716928,-23
599616336910403200,-27
599616336918089472,-27
599616336925775744,-36
599616336933462016,-50
599616336941148288,-50
599616336948834560,-43
599616336956520832,-43
599616336964207104,-46
599616336971893504,-46
599616336979579776,-41
599616336987266048,-43
599616336994952320,-43
599616337002638592,-43
599616337010324864,-71
599616337018011136,-138
599616337025697408,-143
599616337033383680,32
599616337041070080,295
599616337048756352,353
599616337056442647,80
599616337064128896,-203
599616337071815168,-208
599616337079501440,-120
599616337087187712,-97
599616337094873984,-62
599616337102560384,-36
599616337110246656,-53
599616337117932928,-55
599616337125619200,-36
599616337133305472,-36
599616337140991744,-41
599616337148678016,-36
599616337156364288,-32
599616337164050560,-32
599616337171736960,-34
599616337179423232,-30
599616337187109504,-27
599616337194795776,-23
599616337202482048,-18
599616337210168320,-18
599616337217854592,-18
599616337225540864,-11
599616337233227136,-6
599616337240913408,-4
599616337248599808,-2
599616337256286080,2
599616337263972352,4
599616337271658624,4
599616337279344896,4
599616337287031168,-2
599616337294717440,-11
599616337302403712,-27
599616337310089984,-48
599616337317776384,-62
599616337325462656,-67
599616337333148928,-71
599616337340835200,-76
599616337348521472,-78
599616337356207744,-76
599616337363894016,-73
599616337371580288,-71
599616337379266560,-71
599616337386952960,-69
599616337394639232,-67
599616337402325504,-64
599616337410011776,-64
599616337417698048,-64
599616337425384320,-60
599616337433070592,-57
599616337440756864,-60
599616337448443136,-60
599616337456129408,-55
599616337463815808,-53
599616337471502080,-55
599616337479188352,-53
599616337486874624,-53
599616337494560896,-53
599616337502247168,-53
599616337509933440,-50
599616337517619712,-48
599616337525305984,-50
599616337532992384,-50
599616337540678656,-46
599616337548364928,-48
599616337556051200,-50
599616337563737472,-48
599616337571423744,-46
599616337579110016,-48
599616337586796288,-48
599616337594482560,-48
599616337602168960,-46
599616337609855232,-46
599616337617541508,-48
599616337625228160,-48
599616337632914816,-46
599616337640601600,-46
599616337648288256,-50
599616337655974912,-50
599616337663661696,-48
599616337671348352,-48
599616337679035136,-50
599616337686721792,-50
599616337694408448,-50
599616337702095232,-48
599616337709781888,-46
599616337717468544,-48
599616337725155328,-48
599616337732841984,-43
599616337740528768,-43
599616337748215424,-43
599616337755902080,-43
599616337763588864,-43
599616337771275520,-46
599616337778962176,-39
599616337786648960,-34
599616337794335616,-34
599616337802022400,-34
599616337809709056,-32
599616337817395712,-36
599616337825082496,-41
599616337832769152,-46
599616337840455808,-46
599616337848142592,-43
599616337855829248,-41
599616337863516032,-43
599616337871202688,-41
599616337878889344,-41
599616337886576128,-43
599616337894262784,-43
599616337901949440,-41
599616337909636224,-48
599616337917322880,-55
599616337925009664,-43
599616337932696320,-25
599616337940382976,-20
599616337948069760,-27
599616337955756416,-30
599616337963443072,-32
599616337971129856,-48
599616337978816512,-55
599616337986503296,-46
599616337994189952,-41
599616338001876608,-46
599616338009563392,-46
599616338017250048,-41
599616338024936704,-43
599616338032623488,-43
599616338040310144,-48
599616338047996928,-94
599616338055683584,-161
599616338063370240,-120
599616338071057024,113
599616338078743680,388
599616338086430336,381
599616338094117120,36
599616338101803776,-226
599616338109490560,-189
599616338117177216,-110
599616338124863872,-99
599616338132550656,-67
599616338140237312,-53
599616338147923968,-67
599616338155610752,-57
599616338163297408,-46
599616338170984192,-48
599616338178670887,-43
599616338186357120,-39
599616338194043392,-39
599616338201729664,-36
599616338209415936,-34
599616338217102208,-34
599616338224788608,-30
599616338232474880,-25
599616338240161152,-27
599616338247847424,-27
599616338255533696,-23
599616338263219968,-20
599616338270906240,-20
599616338278592512,-18
599616338286278784,-13
599616338293965184,-6
599616338301651456,-4
599616338309337728,-9
599616338317024000,-9
599616338324710272,-11
599616338332396544,-16
599616338340082816,-27
599616338347769088,-43
599616338355455360,-57
599616338363141632,-67
599616338370828032,-71
599616338378514304,-73
599616338386200576,-73
599616338393886848,-76
599616338401573120,-73
599616338409259392,-71
599616338416945664,-71
599616338424631936,-71
599616338432318208,-67
599616338440004608,-64
599616338447690880,-64
599616338455377152,-64
599616338463063424,-64
599616338470749696,-62
599616338478435968,-60
599616338486122240,-60
599616338493808512,-60
599616338501494784,-60
599616338509181184,-57
599616338516867456,-55
599616338524553728,-55
599616338532240000,-55
599616338539926272,-53
599616338547612544,-53
599616338555298816,-53
599616338562985088,-50
599616338570671360,-50
599616338578357632,-55
599616338586044032,-53
599616338593730304,-53
599616338601416576,-53
599616338609102848,-55
599616338616789120,-55
599616338624475392,-53
599616338632161664,-53
599616338639847936,-55
599616338647534208,-55
599616338655220608,-55
599616338662906880,-60
599616338670593152,-60
599616338678279424,-55
599616338685965696,-55
599616338693651968,-57
599616338701338240,-57
599616338709024512,-55
599616338716710784,-53
599616338724397184,-55
599616338732083456,-55
599616338739769748,-55
599616338747456000,-53
599616338755142272,-53
599616338762828544,-55
599616338770514816,-55
599616338778201088,-53
599616338785887488,-53
599616338793573760,-50
599616338801260032,-53
599616338808946304,-53
599616338816632576,-53
599616338824318848,-50
599616338832005120,-50
599616338839691392,-50
599616338847377664,-53
599616338855064064,-53
599616338862750336,-50
599616338870436608,-50
599616338878122880,-53
599616338885809152,-53
599616338893495424,-53
599616338901181696,-55
599616338908867968,-57
599616338916554240,-62
599616338924240512,-62
599616338931926912,-53
599616338939613184,-39
599616338947299456,-30
599616338954985728,-34
599616338962672000,-39
599616338970358272,-48
599616338978044544,-62
599616338985730816,-62
599616338993417088,-55
599616339001103488,-55
599616339008789760,-57
599616339016476032,-55
599616339024162304,-53
599616339031848576,-57
599616339039534848,-55
599616339047221120,-67
599616339054907392,-127
599616339062593664,-187
599616339070280064,-97
599616339077966336,191
599616339085652608,450
599616339093338880,335
599616339101025152,-62
599616339108711424,-265
599616339116397696,-189
599616339124083968,-124
599616339131770240,-113
599616339139456512,-85
599616339147142912,-78
599616339154829184,-85
599616339162515456,-76
599616339170201728,-69
599616339177888000,-71
599616339185574272,-67
599616339193260544,-60
599616339200946816,-60
599616339208633088,-57
599616339216319488,-53
599616339224005760,-50
599616339231692032,-50
599616339239378304,-48
599616339247064576,-46
599616339254750848,-41
599616339262437120,-36
599616339270123392,-36
599616339277809664,-32
599616339285496064,-27
599616339293182336,-25
599616339300868609,-23
599616339308554880,-20
599616339316241152,-18
599616339323927424,-20
599616339331613696,-25
599616339339299968,-34
599616339346986368,-43
599616339354672640,-57
599616339362358912,-71
599616339370045184,-80
599616339377731456,-85
599616339385417728,-92
599616339393104000,-94
599616339400790272,-92
599616339408476544,-90
599616339416162944,-90
599616339423849216,-87
599616339431535488,-85
599616339439221760,-83
599616339446908032,-83
599616339454594304,-80
599616339462280576,-78
599616339469966848,-78
599616339477653120,-78
599616339485339392,-76
599616339493025792,-76
599616339500712064,-76
599616339508398336,-73
599616339516084608,-71
599616339523770880,-71
599616339531457152,-71
599616339539143424,-69
599616339546829696,-69
599616339554515968,-67
599616339562202368,-67
599616339569888640,-67
599616339577574912,-67
599616339585261184,-64
599616339592947456,-64
599616339600633728,-64
599616339608320000,-67
599616339616006272,-67
599616339623692544,-67
599616339631378944,-67
599616339639065216,-67
599616339646751488,-64
599616339654437760,-64
599616339662124032,-71
599616339669810304,-71
599616339677496576,-67
599616339685182848,-69
599616339692869120,-69
599616339700555392,-69
599616339708241792,-67
599616339715928064,-67
599616339723614336,-69
599616339731300608,-69
599616339738986880,-67
599616339746673152,-67
599616339754359424,-69
599616339762045696,-67
599616339769731968,-67
599616339777418368,-64
599616339785104640,-64
599616339792790912,-64
599616339800477184,-64
599616339808163456,-64
599616339815849728,-64
599616339823536000,-62
599616339831222272,-62
599616339838908544,-64
599616339846594944,-64
599616339854281216,-62
599616339861967470,-62
599616339869654144,-62
599616339877340800,-62
599616339885027584,-64
599616339892714240,-69
599616339900400896,-78
599616339908087680,-76
599616339915774336,-57
599616339923461120,-41
599616339931147776,-43
599616339938834432,-46
599616339946521216,-48
599616339954207872,-62
599616339961894528,-73
599616339969581312,-67
599616339977267968,-60
599616339984954752,-64
599616339992641408,-64
599616340000328064,-62
599616340008014848,-62
599616340015701504,-62
599616340023388160,-67
599616340031074944,-104
599616340038761600,-180
599616340046448384,-177
599616340054135040,34
599616340061821696,369
599616340069508480,476
599616340077195136,152
599616340084881792,-221
599616340092568576,-254
599616340100255232,-145
599616340107942016,-115
599616340115628672,-104
599616340123315328,-85
599616340131002112,-85
599616340138688768,-80
599616340146375424,-71
599616340154062208,-67
599616340161748864,-64
599616340169435648,-64
599616340177122304,-62
599616340184808960,-57
599616340192495744,-55
599616340200182400,-55
599616340207869056,-50
599616340215555840,-48
599616340223242496,-48
599616340230929280,-46
599616340238615936,-43
599616340246302592,-39
599616340253989376,-36
599616340261676032,-34
599616340269362688,-30
599616340277049472,-25
599616340284736128,-25
599616340292422912,-23
599616340300109568,-23
599616340307796224,-23
599616340315483008,-30
599616340323169664,-39
599616340330856320,-50
599616340338543104,-67
599616340346229760,-76
599616340353916544,-85
599616340361603200,-87
599616340369289856,-90
599616340376976640,-92
599616340384663296,-90
599616340392349952,-87
599616340400036736,-85
599616340407723392,-85
599616340415410176,-83
599616340423096853,-80
599616340430783104,-80
599616340438469376,-80
599616340446155648,-78
599616340453841920,-78
599616340461528192,-73
599616340469214592,-73
599616340476900864,-73
599616340484587136,-71
599616340492273408,-73
599616340499959680,-73
599616340507645952,-71
599616340515332224,-69
599616340523018496,-69
599616340530704768,-69
599616340538391168,-69
599616340546077440,-67
599616340553763712,-67
599616340561449984,-67
599616340569136256,-67
599616340576822528,-67
599616340584508800,-67
599616340592195072,-67
599616340599881344,-64
599616340607567616,-64
599616340615254016,-64
599616340622940288,-64
599616340630626560,-64
599616340638312832,-62
599616340645999104,-62
599616340653685376,-62
599616340661371648,-62
599616340669057920,-64
599616340676744192,-67
599616340684430592,-67
599616340692116864,-64
599616340699803136,-64
599616340707489408,-64
599616340715175680,-64
599616340722861952,-64
599616340730548224,-64
599616340738234496,-62
599616340745920768,-62
599616340753607168,-62
599616340761293440,-62
599616340768979712,-62
599616340776665984,-60
599616340784352256,-60
599616340792038528,-57
599616340799724800,-60
599616340807411072,-60
599616340815097344,-60
599616340822783616,-60
599616340830470016,-60
599616340838156288,-64
599616340845842560,-69
599616340853528832,-71
599616340861215104,-55
599616340868901376,-34
599616340876587648,-32
599616340884273920,-36
599616340891960192,-39
599616340899646592,-53
599616340907332864,-69
599616340915019136,-62
599616340922705408,-55
599616340930391680,-57
599616340938077952,-57
599616340945764224,-57
599616340953450496,-57
599616340961136768,-57
599616340968823168,-57
599616340976509440,-87
599616340984195714,-161
599616340991882240,-189
599616340999568768,-13
599616341007255168,332
599616341014941696,524
599616341022628224,268
599616341030314752,-166
599616341038001152,-284
599616341045687680,-168
599616341053374208,-110
599616341061060736,-104
599616341068747136,-92
599616341076433664,-87
599616341084120192,-83
599616341091806720,-73
599616341099493120,-69
599616341107179648,-67
599616341114866176,-60
599616341122552704,-57
599616341130239104,-57
599616341137925632,-55
599616341145612160,-50
599616341153298688,-48
599616341160985088,-46
599616341168671616,-43
599616341176358144,-43
599616341184044672,-43
599616341191731072,-41
599616341199417600,-36
599616341207104128,-30
599616341214790528,-27
599616341222477056,-25
599616341230163584,-23
599616341237850112,-18
599616341245536512,-18
599616341253223040,-20
599616341260909568,-25
599616341268596096,-36
599616341276282496,-53
599616341283969024,-64
599616341291655552,-73
599616341299342080,-83
599616341307028480,-90
599616341314715008,-92
599616341322401536,-92
599616341330088064,-90
599616341337774464,-87
599616341345460992,-85
599616341353147520,-83
599616341360834048,-83
599616341368520448,-80
599616341376206976,-78
599616341383893504,-76
599616341391580032,-76
599616341399266432,-76
