599617902965289344,46
599617902972976128,46
599617902980662784,49
599617902988349440,51
599617902996036224,53
599617903003722880,56
599617903011409536,58
599617903019096320,60
599617903026782976,63
599617903034469760,65
599617903042156416,67
599617903049843072,67
599617903057529856,67
599617903065216512,70
599617903072903168,72
599617903080589952,72
599617903088276608,74
599617903095963392,74
599617903103650048,74
599617903111336704,74
599617903119023488,77
599617903126710144,77
599617903134396800,77
599617903142083584,77
599617903149770240,77
599617903157457024,79
599617903165143680,79
599617903172830336,79
599617903180517120,77
599617903188203776,81
599617903195890432,84
599617903203577216,81
599617903211263872,81
599617903218950656,84
599617903226637394,84
599617903234324096,81
599617903242010752,81
599617903249697408,81
599617903257383936,81
599617903265070592,81
599617903272757248,77
599617903280443904,84
599617903288130560,109
599617903295817216,119
599617903303503744,109
599617903311190400,109
599617903318877056,107
599617903326563712,86
599617903334250368,72
599617903341937024,77
599617903349623552,81
599617903357310208,79
599617903364996864,79
599617903372683520,81
599617903380370176,84
599617903388056832,81
599617903395743360,81
599617903403430016,56
599617903411116672,-39
599617903418803328,-114
599617903426489984,56
599617903434176640,481
599617903441863168,816
599617903449549824,648
599617903457236480,74
599617903464923136,-236
599617903472609792,-116
599617903480296448,-9
599617903487982976,21
599617903495669632,95
599617903503356288,100
599617903511042944,58
599617903518729600,77
599617903526416256,95
599617903534102784,84
599617903541789440,86
599617903549476096,100
599617903557162752,98
599617903564849408,95
599617903572536064,105
599617903580222592,109
599617903587909248,112
599617903595595904,116
599617903603282560,121
599617903610969216,128
599617903618655744,133
599617903626342400,138
599617903634029056,145
599617903641715712,152
599617903649402368,161
599617903657089024,170
599617903664775552,177
599617903672462208,187
599617903680148864,191
599617903687835520,191
599617903695522176,189
599617903703208832,187
599617903710895360,177
599617903718582016,159
599617903726268672,131
599617903733955328,98
599617903741641984,70
599617903749328640,51
599617903757015168,39
599617903764701824,32
599617903772388480,28
599617903780075136,28
599617903787761690,30
599617903795448064,32
599617903803134464,37
599617903810820736,39
599617903818507136,42
599617903826193536,44
599617903833879808,44
599617903841566208,46
599617903849252608,51
599617903856938880,53
599617903864625280,53
599617903872311680,53
599617903879997952,56
599617903887684352,60
599617903895370624,60
599617903903057024,63
599617903910743424,65
599617903918429696,65
599617903926116096,67
599617903933802496,67
599617903941488768,70
599617903949175168,70
599617903956861568,70
599617903964547840,70
599617903972234240,70
599617903979920640,70
599617903987606912,67
599617903995293312,70
599617904002979712,70
599617904010665984,70
599617904018352384,70
599617904026038784,70
599617904033725056,70
599617904041411456,70
599617904049097856,70
599617904056784128,72
599617904064470528,72
599617904072156800,74
599617904079843200,72
599617904087529600,74
599617904095215872,74
599617904102902272,74
599617904110588672,74
599617904118274944,77
599617904125961344,77
599617904133647744,77
599617904141334016,77
599617904149020416,79
599617904156706816,79
599617904164393088,77
599617904172079488,79
599617904179765888,79
599617904187452160,79
599617904195138560,77
599617904202824960,79
599617904210511232,81
599617904218197632,81
599617904225883904,79
599617904233570304,79
599617904241256704,81
599617904248942976,81
599617904256629376,81
599617904264315776,81
599617904272002048,81
599617904279688448,81
599617904287374848,79
599617904295061120,77
599617904302747520,70
599617904310433920,81
599617904318120192,107
599617904325806592,116
599617904333492992,109
599617904341179264,107
599617904348865634,102
599617904356552320,86
599617904364238976,74
599617904371925760,77
599617904379612416,81
599617904387299072,79
599617904394985856,79
599617904402672512,81
599617904410359296,84
599617904418045952,84
599617904425732608,79
599617904433419392,35
599617904441106048,-70
599617904448792704,-105
599617904456479488,138
599617904464166144,596
599617904471852928,877
599617904479539584,603
599617904487226240,11
599617904494913024,-222
599617904502599680,-65
599617904510286336,18
599617904517973120,28
599617904525659776,77
599617904533346560,70
599617904541033216,44
599617904548719872,65
599617904556406656,74
599617904564093312,65
599617904571779968,72
599617904579466752,79
599617904587153408,79
599617904594840192,81
599617904602526848,86
599617904610213504,88
599617904617900288,91
599617904625586944,98
599617904633273600,102
599617904640960384,107
599617904648647040,109
599617904656333824,116
599617904664020480,121
599617904671707136,128
599617904679393920,135
599617904687080576,142
599617904694767232,152
599617904702454016,156
599617904710140672,161
599617904717827456,163
599617904725514112,166
599617904733200768,163
599617904740887552,156
599617904748574208,147
599617904756260864,126
599617904763947648,100
599617904771634304,74
599617904779321088,58
599617904787007744,46
599617904794694400,37
599617904802381184,30
599617904810067840,30
599617904817754496,30
599617904825441280,32
599617904833127936,35
599617904840814720,37
599617904848501376,42
599617904856188032,44
599617904863874816,44
599617904871561472,49
599617904879248128,49
599617904886934912,51
599617904894621568,51
599617904902308352,56
599617904909995017,56
599617904917681664,56
599617904925368320,58
599617904933055104,60
599617904940741760,60
599617904948428416,60
599617904956115200,63
599617904963801856,63
599617904971488640,63
599617904979175296,60
599617904986861952,60
599617904994548736,60
599617905002235392,60
599617905009922048,60
599617905017608832,60
599617905025295488,60
599617905032982272,63
599617905040668928,63
599617905048355584,63
599617905056042368,60
599617905063729024,63
599617905071415680,63
599617905079102464,63
599617905086789120,63
599617905094475904,65
599617905102162560,65
599617905109849216,65
599617905117536000,65
599617905125222656,65
599617905132909312,67
599617905140596096,67
599617905148282752,67
599617905155969536,67
599617905163656192,67
599617905171342848,67
599617905179029632,67
599617905186716288,70
599617905194402944,70
599617905202089728,70
599617905209776384,67
599617905217463168,70
599617905225149824,70
599617905232836480,70
599617905240523264,70
599617905248209920,70
599617905255896576,70
599617905263583360,72
599617905271270016,72
599617905278956800,72
599617905286643456,74
599617905294330112,77
599617905302016896,74
599617905309703552,74
599617905317390208,74
599617905325076992,74
599617905332763648,77
599617905340450432,77
599617905348137088,77
599617905355823744,77
599617905363510528,77
599617905371197184,77
599617905378883840,79
599617905386570624,79
599617905394257280,77
599617905401944064,79
599617905409630720,77
599617905417317376,70
599617905425004160,65
599617905432690816,79
599617905440377472,105
599617905448064256,112
599617905455750912,105
599617905463437696,102
599617905471124396,95
599617905478811008,77
599617905486497664,65
599617905494184448,70
599617905501871104,77
599617905509557760,72
599617905517244544,70
599617905524931200,74
599617905532617984,74
599617905540304640,74
599617905547991296,63
599617905555678080,2
599617905563364736,-107
599617905571051392,-88
599617905578738176,240
599617905586424832,715
599617905594111616,889
599617905601798272,479
599617905609484928,-86
599617905617171712,-189
599617905624858368,-30
599617905632545024,7
599617905640231808,30
599617905647918464,70
599617905655605248,44
599617905663291904,35
599617905670978560,58
599617905678665344,58
599617905686352000,56
599617905694038656,65
599617905701725440,67
599617905709412096,67
599617905717098880,70
599617905724785536,74
599617905732472192,79
599617905740158976,84
599617905747845632,88
599617905755532288,88
599617905763219072,93
599617905770905728,100
599617905778592512,107
599617905786279168,112
599617905793965824,119
599617905801652608,124
599617905809339264,133
599617905817025920,140
599617905824712704,147
599617905832399360,152
599617905840086144,154
599617905847772800,156
599617905855459456,152
599617905863146240,147
599617905870832896,135
599617905878519552,116
599617905886206336,91
599617905893892992,67
599617905901579776,49
599617905909266432,37
599617905916953088,28
599617905924639872,25
599617905932326528,25
599617905940013184,25
599617905947699968,23
599617905955386624,25
599617905963073408,32
599617905970760064,35
599617905978446720,35
599617905986133504,37
599617905993820160,37
599617906001506816,37
599617906009193600,42
599617906016880256,44
599617906024567040,44
599617906032253775,46
599617906039940352,49
599617906047626880,49
599617906055313536,49
599617906063000064,51
599617906070686592,53
599617906078373120,51
599617906086059776,51
599617906093746304,51
599617906101432832,53
599617906109119488,53
599617906116806016,56
599617906124492544,58
599617906132179072,58
599617906139865728,58
599617906147552256,56
599617906155238784,58
599617906162925440,60
599617906170611968,60
599617906178298496,58
599617906185985024,60
599617906193671680,60
599617906201358208,60
599617906209044736,60
599617906216731392,60
599617906224417920,60
599617906232104448,60
599617906239790976,63
599617906247477632,63
599617906255164160,63
599617906262850688,63
599617906270537344,63
599617906278223872,65
599617906285910400,63
599617906293596928,63
599617906301283584,65
599617906308970112,65
599617906316656640,65
599617906324343296,65
599617906332029824,65
599617906339716352,67
599617906347402880,67
599617906355089536,65
599617906362776064,65
599617906370462592,67
599617906378149248,67
599617906385835776,65
599617906393522304,67
599617906401208832,70
599617906408895488,70
599617906416582016,70
599617906424268544,70
599617906431955200,70
599617906439641728,70
599617906447328256,67
599617906455014784,67
599617906462701440,72
599617906470387968,70
599617906478074496,67
599617906485761152,67
599617906493447680,65
599617906501134208,56
599617906508820736,56
599617906516507392,74
599617906524193920,98
599617906531880448,100
599617906539567104,93
599617906547253632,88
599617906554940160,77
599617906562626688,63
599617906570313344,60
599617906577999872,67
599617906585686400,67
599617906593372984,65
599617906601059328,67
599617906608745728,70
599617906616432128,67
599617906624118656,67
599617906631805056,49
599617906639491456,-35
599617906647177856,-133
599617906654864256,-21
599617906662550784,388
599617906670237184,795
599617906677923584,753
599617906685609984,198
599617906693296384,-238
599617906700982912,-168
599617906708669312,-18
599617906716355712,-2
599617906724042112,56
599617906731728512,86
599617906739415040,39
599617906747101440,37
599617906754787840,67
599617906762474240,67
599617906770160640,65
599617906777847168,72
599617906785533568,74
599617906793219968,77
599617906800906368,81
599617906808592768,86
599617906816279168,88
599617906823965696,93
599617906831652096,95
599617906839338496,100
599617906847024896,109
599617906854711296,114
599617906862397824,116
599617906870084224,121
599617906877770624,128
599617906885457024,135
599617906893143424,142
599617906900829952,152
599617906908516352,156
599617906916202752,159
599617906923889152,159
599617906931575552,156
599617906939262080,152
599617906946948480,145
599617906954634880,126
599617906962321280,102
599617906970007680,74
599617906977694208,53
599617906985380608,39
599617906993067008,28
599617907000753408,18
599617907008439808,14
599617907016126336,14
599617907023812736,16
599617907031499136,21
599617907039185536,21
599617907046871936,23
599617907054558464,25
599617907062244864,25
599617907069931264,30
599617907077617664,32
599617907085304064,37
599617907092990592,39
599617907100676992,37
599617907108363392,39
599617907116049792,44
599617907123736192,46
599617907131422720,46
599617907139109120,46
599617907146795520,49
599617907154482015,51
599617907162168704,51
599617907169855360,51
599617907177542144,53
599617907185228800,53
599617907192915456,51
599617907200602240,51
599617907208288896,51
599617907215975680,51
599617907223662336,53
599617907231348992,56
599617907239035776,53
599617907246722432,56
599617907254409088,56
599617907262095872,56
599617907269782528,58
599617907277469312,58
599617907285155968,56
599617907292842624,56
599617907300529408,60
599617907308216064,60
599617907315902720,60
599617907323589504,60
599617907331276160,60
599617907338962944,63
599617907346649600,63
599617907354336256,63
599617907362023040,60
599617907369709696,63
599617907377396352,63
599617907385083136,63
599617907392769792,63
599617907400456576,65
599617907408143232,65
599617907415829888,65
599617907423516672,65
599617907431203328,65
599617907438889984,65
599617907446576768,65
599617907454263424,65
599617907461950208,67
599617907469636864,67
599617907477323520,67
599617907485010304,67
599617907492696960,65
599617907500383616,65
599617907508070400,65
599617907515757056,65
599617907523443840,63
599617907531130496,65
599617907538817152,65
599617907546503936,65
599617907554190592,63
599617907561877248,63
599617907569564032,60
599617907577250688,56
599617907584937472,60
599617907592624128,81
599617907600310784,100
599617907607997568,98
599617907615684224,91
599617907623370880,84
599617907631057664,70
599617907638744320,58
599617907646431104,60
599617907654117760,65
599617907661804416,63
599617907669491200,63
599617907677177856,65
599617907684864512,67
599617907692551296,67
599617907700237952,60
599617907707924736,23
599617907715611394,-77
599617907723298048,-126
599617907730984704,100
599617907738671488,554
599617907746358144,851
599617907754044800,612
599617907761731584,25
599617907769418240,-233
599617907777105024,-91
599617907784791680,-2
599617907792478336,7
599617907800165120,63
599617907807851776,60
599617907815538432,30
599617907823225216,49
599617907830911872,60
599617907838598656,51
599617907846285312,58
599617907853971968,65
599617907861658752,63
599617907869345408,65
599617907877032064,72
599617907884718848,77
599617907892405504,79
599617907900092288,84
599617907907778944,88
599617907915465600,93
599617907923152384,98
599617907930839040,102
599617907938525696,107
599617907946212480,114
599617907953899136,121
599617907961585920,131
599617907969272576,138
599617907976959232,142
599617907984646016,147
599617907992332672,152
599617908000019328,152
599617908007706112,149
599617908015392768,142
599617908023079552,131
599617908030766208,112
599617908038452864,88
599617908046139648,63
599617908053826304,44
599617908061512960,28
599617908069199744,18
599617908076886400,16
599617908084573184,14
599617908092259840,14
599617908099946496,14
599617908107633280,18
599617908115319936,18
599617908123006592,21
599617908130693376,25
599617908138380032,28
599617908146066816,30
599617908153753472,30
599617908161440128,32
599617908169126912,35
599617908176813568,39
599617908184500224,39
599617908192187008,39
599617908199873664,44
599617908207560448,46
599617908215247104,44
599617908222933760,46
599617908230620544,49
599617908238307200,51
599617908245993856,51
599617908253680640,53
599617908261367296,51
599617908269054080,51
599617908276740777,51
599617908284427392,53
599617908292114048,53
599617908299800832,53
599617908307487488,53
599617908315174144,56
599617908322860928,56
599617908330547584,56
599617908338234368,56
599617908345921024,56
599617908353607680,56
599617908361294464,56
599617908368981120,53
599617908376667776,53
599617908384354560,56
599617908392041216,53
599617908399728000,56
599617908407414656,58
599617908415101312,56
599617908422788096,56
599617908430474752,58
599617908438161408,58
599617908445848192,56
599617908453534848,56
599617908461221632,58
599617908468908288,58
599617908476594944,58
599617908484281728,58
599617908491968384,58
599617908499655040,58
599617908507341824,58
599617908515028480,58
599617908522715264,56
599617908530401920,58
599617908538088576,58
599617908545775360,56
599617908553462016,58
599617908561148672,60
599617908568835456,58
599617908576522112,58
599617908584208896,60
599617908591895552,60
599617908599582208,60
599617908607268992,63
599617908614955648,63
599617908622642304,60
599617908630329088,60
599617908638015744,63
599617908645702528,63
599617908653389184,63
599617908661075840,63
599617908668762624,63
599617908676449280,63
599617908684135936,63
599617908691822720,60
599617908699509376,53
599617908707196160,49
599617908714882816,63
599617908722569472,86
599617908730256256,95
599617908737942912,93
599617908745629568,88
599617908753316352,81
599617908761003008,65
599617908768689792,53
599617908776376448,56
599617908784063104,63
599617908791749888,60
599617908799436544,63
599617908807123200,63
599617908814809984,63
599617908822496640,63
599617908830183424,58
599617908837870156,2
599617908845556864,-109
599617908853243520,-114
599617908860930304,180
599617908868616960,662
599617908876303616,903
599617908883990400,556
599617908891677056,-37
599617908899363840,-210
599617908907050496,-58
599617908914737152,-4
599617908922423936,9
599617908930110592,51
599617908937797248,30
599617908945484032,16
599617908953170688,39
599617908960857472,44
599617908968544128,37
599617908976230784,46
599617908983917568,51
599617908991604224,51
599617908999290880,53
599617909006977664,60
599617909014664320,63
599617909022351104,63
599617909030037760,67
599617909037724416,70
599617909045411200,74
599617909053097856,79
599617909060784512,84
599617909068471296,91
599617909076157952,98
599617909083844736,102
599617909091531392,109
599617909099218048,119
599617909106904832,126
599617909114591488,133
599617909122278144,135
599617909129964928,138
599617909137651584,135
599617909145338368,131
599617909153025024,124
599617909160711680,109
599617909168398464,86
599617909176085120,60
599617909183771776,39
599617909191458560,28
599617909199145216,18
599617909206832000,14
599617909214518656,11
599617909222205312,11
599617909229892096,14
599617909237578752,14
599617909245265408,18
599617909252952192,21
599617909260638848,21
599617909268325632,23
599617909276012288,25
599617909283698944,28
599617909291385728,30
599617909299072384,30
599617909306759040,32
599617909314445824,37
599617909322132480,37
599617909329819264,37
599617909337505920,39
599617909345192576,39
599617909352879360,39
599617909360566016,39
599617909368252672,42
599617909375939456,42
599617909383626112,42
599617909391312896,42
599617909398999535,44
599617909406686080,44
599617909414372608,46
599617909422059264,49
599617909429745792,49
599617909437432320,49
599617909445118848,49
599617909452805504,49
599617909460492032,49
599617909468178560,51
599617909475865216,46
599617909483551744,44
599617909491238272,49
599617909498924800,49
599617909506611456,46
599617909514297984,49
599617909521984512,49
599617909529671168,46
599617909537357696,44
599617909545044224,44
599617909552730752,46
599617909560417408,49
599617909568103936,49
599617909575790464,49
599617909583477120,49
599617909591163648,51
599617909598850176,49
599617909606536704,49
599617909614223360,51
599617909621909888,51
599617909629596416,51
599617909637283072,51
599617909644969600,51
599617909652656128,53
599617909660342656,51
599617909668029312,49
599617909675715840,53
599617909683402368,53
599617909691089024,53
599617909698775552,56
599617909706462080,56
599617909714148608,58
599617909721835264,58
599617909729521792,56
599617909737208320,56
599617909744894976,58
599617909752581504,58
599617909760268032,60
599617909767954560,60
599617909775641216,58
599617909783327744,58
599617909791014272,60
599617909798700928,58
599617909806387456,49
599617909814073984,53
599617909821760512,74
599617909829447168,91
599617909837133696,93
599617909844820224,88
599617909852506880,81
599617909860193408,67
599617909867879936,53
599617909875566464,56
599617909883253120,63
599617909890939648,60
599617909898626176,58
599617909906312832,60
599617909913999360,60
599617909921685888,60
599617909929372416,58
599617909937059072,18
599617909944745600,-86
599617909952432128,-133
599617909960118744,95
599617909967805184,556
599617909975491584,861
599617909983177984,615
599617909990864512,7
599617909998550912,-259
599617910006237312,-105
599617910013923712,-11
599617910021610112,2
599617910029296640,60
599617910036983040,51
599617910044669440,16
599617910052355840,39
599617910060042240,53
599617910067728768,44
599617910075415168,49
599617910083101568,58
599617910090787968,58
599617910098474368,60
599617910106160896,65
599617910113847296,67
599617910121533696,72
599617910129220096,79
599617910136906496,81
599617910144593024,86
599617910152279424,93
599617910159965824,98
599617910167652224,105
599617910175338624,114
599617910183025024,119
599617910190711552,126
599617910198397952,135
599617910206084352,142
599617910213770752,147
599617910221457152,149
599617910229143680,149
599617910236830080,149
599617910244516480,142
599617910252202880,133
599617910259889280,114
599617910267575808,93
599617910275262208,65
599617910282948608,39
599617910290635008,25
599617910298321408,18
599617910306007936,11
599617910313694336,4
599617910321380736,7
599617910329067136,7
599617910336753536,11
599617910344440064,14
599617910352126464,16
599617910359812864,16
599617910367499264,18
599617910375185664,23
599617910382872192,25
599617910390558592,25
599617910398244992,30
599617910405931392,32
599617910413617792,32
599617910421304320,35
599617910428990720,37
599617910436677120,39
599617910444363520,39
599617910452049920,42
599617910459736448,42
599617910467422848,39
599617910475109248,44
599617910482795648,44
599617910490482048,44
599617910498168576,46
599617910505854976,46
599617910513541376,44
599617910521227775,46
599617910528914432,49
599617910536601088,46
599617910544287872,44
599617910551974528,44
599617910559661184,42
599617910567347968,46
599617910575034624,46
599617910582721408,46
599617910590408064,46
599617910598094720,49
599617910605781504,49
599617910613468160,46
599617910621154816,44
599617910628841600,46
599617910636528256,46
599617910644215040,46
599617910651901696,46
599617910659588352,49
599617910667275136,49
599617910674961792,49
599617910682648448,49
599617910690335232,51
599617910698021888,49
599617910705708672,49
599617910713395328,51
599617910721081984,51
599617910728768768,51
599617910736455424,51
599617910744142080,51
599617910751828864,53
599617910759515520,53
599617910767202304,53
599617910774888960,53
599617910782575616,53
599617910790262400,53
599617910797949056,56
599617910805635712,56
599617910813322496,56
599617910821009152,58
599617910828695936,53
599617910836382592,49
599617910844069248,44
599617910851756032,51
599617910859442688,74
599617910867129344,93
599617910874816128,88
599617910882502784,79
599617910890189568,74
599617910897876224,60
599617910905562880,49
599617910913249664,51
599617910920936320,56
599617910928622976,53
599617910936309760,53
599617910943996416,58
599617910951683200,58
599617910959369856,56
599617910967056512,49
599617910974743296,-11
599617910982429952,-124
599617910990116608,-98
599617910997803392,226
599617911005490048,676
599617911013176832,811
599617911020863488,390
599617911028550144,-152
599617911036236928,-226
599617911043923584,-58
599617911051610240,-18
599617911059297024,23
599617911066983680,77
599617911074670464,44
599617911082357154,28
599617911090043776,56
599617911097730432,58
599617911105417216,49
599617911113103872,58
599617911120790528,63
599617911128477312,60
599617911136163968,63
599617911143850752,70
599617911151537408,72
599617911159224064,74
599617911166910848,81
599617911174597504,86
599617911182284160,88
599617911189970944,93
599617911197657600,100
599617911205344384,107
599617911213031040,114
599617911220717696,121
599617911228404480,131
599617911236091136,138
599617911243777792,142
599617911251464576,147
599617911259151232,149
599617911266838016,149
599617911274524672,145
599617911282211328,138
599617911289898112,124
599617911297584768,102
599617911305271424,74
599617911312958208,49
599617911320644864,30
599617911328331648,16
599617911336018304,7
599617911343704960,0
599617911351391744,2
599617911359078400,2
599617911366765056,4
599617911374451840,9
599617911382138496,11
599617911389825280,14
599617911397511936,14
599617911405198592,18
599617911412885376,21
599617911420572032,21
599617911428258688,25
599617911435945472,28
599617911443632128,30
599617911451318912,30
599617911459005568,32
599617911466692224,37
599617911474379008,37
599617911482065664,35
599617911489752320,37
599617911497439104,39
599617911505125760,39
599617911512812544,39
599617911520499200,42
599617911528185856,42
599617911535872640,42
599617911543559296,44
599617911551245952,44
599617911558932736,39
599617911566619392,39
599617911574306176,42
599617911581992832,42
599617911589679488,42
599617911597366272,42
599617911605052928,44
599617911612739584,42
599617911620426368,44
599617911628113024,46
599617911635799808,44
599617911643486537,44
599617911651173248,46
599617911658859904,46
599617911666546688,46
599617911674233344,49
599617911681920000,49
599617911689606784,49
599617911697293440,51
599617911704980224,49
599617911712666880,49
599617911720353536,49
599617911728040320,46
599617911735726976,46
599617911743413632,49
599617911751100416,49
599617911758787072,49
599617911766473856,49
599617911774160512,51
599617911781847168,51
599617911789533952,51
599617911797220608,51
599617911804907264,51
599617911812594048,51
599617911820280704,51
599617911827967488,51
599617911835654144,53
599617911843340800,53
599617911851027584,51
599617911858714240,53
599617911866400896,53
599617911874087680,51
599617911881774336,51
599617911889461120,53
599617911897147776,46
599617911904834432,39
599617911912521216,51
599617911920207872,77
599617911927894528,88
599617911935581312,84
599617911943267968,77
599617911950954752,70
599617911958641408,53
599617911966328064,44
599617911974014848,49
599617911981701504,53
599617911989388160,51
599617911997074944,49
599617912004761600,49
599617912012448384,51
599617912020135040,53
599617912027821696,39
599617912035508480,-30
599617912043195136,-135
599617912050881792,-74
599617912058568576,285
599617912066255232,734
599617912073942016,823
599617912081628672,355
599617912089315328,-163
599617912097002112,-194
599617912104688768,-35
599617912112375424,-14
599617912120062208,16
599617912127748864,53
599617912135435648,25
599617912143122304,18
599617912150808960,42
599617912158495744,42
599617912166182400,37
599617912173869056,46
599617912181555840,49
599617912189242496,49
599617912196929280,56
599617912204615916,60
599617912212302592,60
599617912219989248,65
599617912227676032,70
599617912235362688,74
599617912243049344,79
599617912250736128,84
599617912258422784,88
599617912266109568,93
599617912273796224,98
599617912281482880,107
599617912289169664,114
599617912296856320,121
599617912304542976,128
599617912312229760,133
599617912319916416,138
599617912327603200,138
599617912335289856,135
599617912342976512,128
599617912350663296,116
599617912358349952,98
599617912366036608,72
599617912373723392,49
599617912381410048,30
599617912389096832,18
599617912396783488,11
599617912404470144,4
599617912412156928,2
599617912419843584,4
599617912427530240,7
599617912435217024,9
599617912442903680,11
599617912450590464,14
599617912458277120,16
599617912465963776,18
599617912473650560,21
599617912481337216,21
599617912489023872,23
599617912496710656,25
599617912504397312,28
599617912512084096,28
599617912519770752,30
599617912527457408,35
599617912535144192,35
599617912542830848,35
599617912550517504,35
599617912558204288,35
599617912565890944,32
599617912573577728,35
599617912581264384,37
599617912588951040,37
599617912596637824,37
599617912604324480,37
599617912612011136,37
599617912619697920,39
599617912627384576,39
599617912635071360,39
599617912642758016,42
599617912650444672,42
599617912658131456,42
599617912665818112,42
599617912673504768,44
599617912681191552,44
599617912688878208,44
599617912696564992,44
599617912704251648,46
599617912711938304,44
599617912719625088,44
599617912727311744,46
599617912734998400,46
599617912742685184,46
599617912750371840,46
599617912758058624,46
599617912765745295,46
599617912773431936,49
599617912781118592,46
599617912788805376,46
599617912796492032,51
599617912804178688,49
599617912811865472,46
599617912819552128,49
599617912827238912,49
599617912834925568,44
599617912842612224,46
599617912850299008,46
599617912857985664,49
599617912865672320,49
599617912873359104,46
599617912881045760,46
599617912888732544,49
599617912896419200,49
599617912904105856,49
599617912911792640,51
599617912919479296,51
599617912927165952,51
599617912934852736,53
599617912942539392,53
599617912950226176,53
599617912957912832,53
599617912965599488,53
599617912973286272,53
599617912980972928,53
599617912988659584,53
599617912996346368,53
599617913004033024,56
599617913011719808,49
599617913019406464,42
599617913027093120,49
599617913034779904,72
599617913042466560,88
599617913050153216,86
599617913057840000,81
599617913065526656,74
599617913073213440,58
599617913080900096,44
599617913088586752,44
599617913096273536,51
599617913103960192,49
599617913111646848,49
599617913119333632,51
599617913127020288,51
599617913134707072,51
599617913142393728,46
599617913150080384,0
599617913157767168,-107
599617913165453824,-135
599617913173140480,128
599617913180827264,605
599617913188513920,889
599617913196200704,596
599617913203887360,-4
599617913211574016,-222
599617913219260800,-77
599617913226947456,-11
599617913234634112,0
599617913242320896,42
599617913250007552,28
599617913257694336,9
599617913265380992,30
599617913273067648,37
599617913280754432,30
599617913288441088,37
599617913296127744,44
599617913303814528,46
599617913311501184,46
599617913319187968,51
599617913326874674,56
599617913334561280,60
599617913342247936,63
599617913349934720,67
599617913357621376,72
599617913365308032,74
599617913372994816,79
599617913380681472,84
599617913388368256,91
599617913396054912,98
599617913403741568,105
599617913411428352,112
599617913419115008,119
599617913426801664,124
599617913434488448,128
599617913442175104,133
599617913449861888,131
599617913457548544,126
599617913465235200,119
599617913472921984,105
599617913480608640,81
599617913488295296,56
599617913495982080,35
599617913503668736,18
599617913511355520,9
599617913519042176,4
599617913526728832,2
599617913534415616,0
599617913542102272,2
599617913549788928,2
599617913557475712,4
599617913565162368,9
599617913572849152,9
599617913580535808,9
599617913588222464,11
599617913595909248,16
599617913603595904,16
599617913611282560,18
599617913618969344,23
599617913626656000,25
599617913634342784,28
599617913642029440,28
599617913649716096,30
599617913657402880,32
599617913665089536,35
599617913672776192,35
599617913680462976,35
599617913688149632,37
599617913695836416,39
599617913703523072,39
599617913711209728,42
599617913718896512,42
599617913726583168,42
599617913734269824,44
599617913741956608,44
599617913749643264,44
599617913757330048,46
599617913765016704,46
599617913772703360,44
599617913780390144,46
599617913788076800,46
599617913795763456,49
599617913803450240,49
599617913811136896,49
599617913818823680,46
599617913826510336,46
599617913834196992,46
599617913841883776,51
599617913849570432,49
599617913857257088,49
599617913864943872,51
599617913872630528,51
599617913880317312,49
599617913888004053,49
599617913895690752,51
599617913903377408,51
599617913911064192,51
599617913918750848,51
599617913926437504,53
599617913934124288,51
599617913941810944,49
599617913949497728,49
599617913957184384,49
599617913964871040,49
599617913972557824,51
599617913980244480,49
599617913987931136,49
599617913995617920,51
599617914003304576,51
599617914010991360,51
599617914018678016,53
599617914026364672,51
599617914034051456,53
599617914041738112,53
599617914049424768,53
599617914057111552,53
599617914064798208,51
599617914072484992,49
599617914080171648,49
599617914087858304,42
599617914095545088,35
599617914103231744,51
599617914110918400,77
599617914118605184,84
599617914126291840,79
599617914133978624,74
599617914141665280,67
599617914149351936,49
599617914157038720,39
599617914164725376,46
599617914172412032,51
599617914180098816,49
599617914187785472,51
599617914195472256,53
599617914203158912,53
599617914210845568,51
599617914218532352,42
599617914226219008,-25
599617914233905664,-135
599617914241592448,-86
599617914249279104,269
599617914256965888,720
599617914264652544,814
599617914272339200,343
599617914280025984,-189
599617914287712640,-222
599617914295399296,-49
599617914303086080,-21
599617914310772736,21
599617914318459520,72
599617914326146176,35
599617914333832832,21
599617914341519616,49
599617914349206272,51
599617914356892928,44
599617914364579712,53
599617914372266368,58
599617914379953152,53
599617914387639808,60
599617914395326464,67
599617914403013248,67
599617914410699904,72
599617914418386560,79
599617914426073344,81
599617914433760000,86
599617914441446784,93
599617914449133432,100
599617914456820096,105
599617914464506752,109
599617914472193536,116
599617914479880192,124
599617914487566848,131
599617914495253632,135
599617914502940288,140
599617914510627072,145
599617914518313728,142
599617914526000384,138
599617914533687168,131
599617914541373824,119
599617914549060480,98
599617914556747264,72
599617914564433920,44
599617914572120704,21
599617914579807360,7
599617914587494016,2
599617914595180800,-2
599617914602867456,-4
599617914610554112,-4
599617914618240896,-4
599617914625927552,0
599617914633614336,2
599617914641300992,4
599617914648987648,9
599617914656674432,9
599617914664361088,11
599617914672047744,16
599617914679734528,16
599617914687421184,16
599617914695107968,21
599617914702794624,23
599617914710481280,25
599617914718168064,28
599617914725854720,28
599617914733541376,30
599617914741228160,32
599617914748914816,32
599617914756601600,32
599617914764288256,32
599617914771974912,35
599617914779661696,35
599617914787348352,35
599617914795035008,37
599617914802721792,37
599617914810408448,37
599617914818095232,37
599617914825781888,37
599617914833468544,37
599617914841155328,37
599617914848841984,37
599617914856528640,37
599617914864215424,39
599617914871902080,39
599617914879588864,42
599617914887275520,42
599617914894962176,42
599617914902648960,42
599617914910335616,42
599617914918022272,42
599617914925709056,44
599617914933395712,46
599617914941082496,44
599617914948769152,46
599617914956455808,49
599617914964142592,46
599617914971829248,46
599617914979515904,46
599617914987202688,46
599617914994889344,46
599617915002576128,49
599617915010262815,46
599617915017949184,46
599617915025635584,49
599617915033321984,49
599617915041008512,46
599617915048694912,49
599617915056381312,51
599617915064067712,49
599617915071754112,49
599617915079440640,49
599617915087127040,44
599617915094813440,46
599617915102499840,46
599617915110186240,35
599617915117872768,32
599617915125559168,51
599617915133245568,72
599617915140931968,77
599617915148618368,72
599617915156304896,67
599617915163991296,56
599617915171677696,39
599617915179364096,37
599617915187050496,44
599617915194737024,44
599617915202423424,44
599617915210109824,44
599617915217796224,46
599617915225482624,49
599617915233169024,49
599617915240855552,25
599617915248541952,-63
599617915256228352,-152
599617915263914752,-16
599617915271601152,400
599617915279287680,788
599617915286974080,704
599617915294660480,145
599617915302346880,-245
599617915310033280,-159
599617915317719808,-30
599617915325406208,-21
599617915333092608,39
599617915340779008,63
599617915348465408,21
599617915356151936,25
599617915363838336,51
599617915371524736,44
599617915379211136,39
599617915386897536,51
599617915394584064,53
599617915402270464,53
599617915409956864,58
599617915417643264,63
599617915425329664,65
599617915433016192,70
599617915440702592,74
599617915448388992,79
599617915456075392,84
599617915463761792,91
599617915471448320,95
599617915479134720,102
599617915486821120,107
599617915494507520,114
599617915502193920,124
599617915509880448,131
599617915517566848,135
599617915525253248,140
599617915532939648,142
599617915540626048,140
599617915548312576,135
599617915555998976,131
599617915563685376,114
599617915571371850,88
599617915579058432,58
599617915586744960,32
599617915594431616,16
599617915602118144,7
599617915609804672,-2
599617915617491200,-4
599617915625177856,-4
599617915632864384,-4
599617915640550912,-2
599617915648237568,2
599617915655924096,2
599617915663610624,2
599617915671297152,7
599617915678983808,9
599617915686670336,11
599617915694356864,14
599617915702043520,16
599617915709730048,18
599617915717416576,21
599617915725103104,23
599617915732789760,25
599617915740476288,25
599617915748162816,25
599617915755849472,28
599617915763536000,30
599617915771222528,30
599617915778909056,30
599617915786595712,32
599617915794282240,35
599617915801968768,35
599617915809655424,35
599617915817341952,35
599617915825028480,35
599617915832715008,35
599617915840401664,37
599617915848088192,37
599617915855774720,37
599617915863461376,37
599617915871147904,37
599617915878834432,37
599617915886520960,37
599617915894207616,39
599617915901894144,39
599617915909580672,39
599617915917267328,42
599617915924953856,42
599617915932640384,42
599617915940326912,42
599617915948013568,42
599617915955700096,42
599617915963386624,42
599617915971073280,42
599617915978759808,44
599617915986446336,44
599617915994132864,44
599617916001819520,44
599617916009506048,44
599617916017192576,44
599617916024879232,46
599617916032565760,46
599617916040252288,44
599617916047938816,44
599617916055625472,46
599617916063312000,46
599617916070998528,46
599617916078685184,46
599617916086371712,44
599617916094058240,42
599617916101744768,44
599617916109431424,44
599617916117117952,44
599617916124804480,44
599617916132491055,46
599617916140177664,44
599617916147864320,44
599617916155551104,46
599617916163237760,46
599617916170924416,44
599617916178611200,44
599617916186297856,35
599617916193984640,32
599617916201671296,51
599617916209357952,74
599617916217044736,79
599617916224731392,72
599617916232418048,67
599617916240104832,58
599617916247791488,42
599617916255478272,35
599617916263164928,44
599617916270851584,46
599617916278538368,42
599617916286225024,44
599617916293911680,46
599617916301598464,46
599617916309285120,46
599617916316971904,21
599617916324658560,-70
599617916332345216,-154
599617916340032000,-7
599617916347718656,416
599617916355405312,811
599617916363092096,734
599617916370778752,175
599617916378465536,-224
599617916386152192,-145
599617916393838848,-16
599617916401525632,-14
599617916409212288,25
599617916416898944,42
599617916424585728,11
599617916432272384,18
599617916439959168,37
599617916447645824,30
599617916455332480,30
599617916463019264,42
599617916470705920,42
599617916478392576,42
599617916486079360,49
599617916493766016,51
599617916501452800,51
599617916509139456,56
599617916516826112,63
599617916524512896,65
599617916532199552,70
599617916539886208,77
599617916547572992,81
599617916555259648,86
599617916562946432,93
599617916570633088,102
599617916578319744,109
599617916586006528,116
599617916593693184,121
599617916601379840,124
599617916609066624,128
599617916616753280,128
599617916624440064,124
599617916632126720,119
599617916639813376,107
599617916647500160,86
599617916655186816,58
599617916662873472,35
599617916670560256,18
599617916678246912,4
599617916685933696,-2
599617916693620434,-7
599617916701307136,-9
599617916708993792,-7
599617916716680576,-7
599617916724367232,-2
599617916732053888,0
599617916739740672,2
599617916747427328,4
599617916755114112,7
599617916762800768,7
599617916770487424,9
599617916778174208,11
599617916785860864,14
599617916793547520,14
599617916801234304,16
599617916808920960,18
599617916816607744,21
599617916824294400,23
599617916831981056,23
599617916839667840,25
599617916847354496,25
599617916855041152,25
599617916862727936,28
599617916870414592,30
599617916878101376,30
599617916885788032,30
599617916893474688,32
599617916901161472,32
599617916908848128,32
599617916916534784,32
599617916924221568,32
599617916931908224,35
599617916939595008,37
599617916947281664,37
599617916954968320,35
599617916962655104,37
599617916970341760,37
599617916978028416,37
599617916985715200,37
599617916993401856,37
599617917001088640,37
599617917008775296,37
599617917016461952,39
599617917024148736,42
599617917031835392,39
599617917039522048,39
599617917047208832,39
599617917054895488,42
599617917062582272,39
599617917070268928,39
599617917077955584,42
599617917085642368,42
599617917093329024,39
599617917101015680,37
599617917108702464,39
599617917116389120,42
599617917124075904,39
599617917131762560,39
599617917139449216,42
599617917147136000,39
599617917154822656,39
599617917162509312,42
599617917170196096,44
599617917177882752,42
599617917185569536,42
599617917193256192,44
599617917200942848,44
599617917208629632,44
599617917216316288,46
599617917224002944,46
599617917231689728,44
599617917239376384,46
599617917247063168,44
599617917254749813,44
599617917262436480,42
599617917270123136,35
599617917277809920,32
599617917285496576,51
599617917293183232,74
599617917300870016,79
599617917308556672,72
599617917316243456,67
599617917323930112,58
599617917331616768,39
599617917339303552,32
599617917346990208,42
599617917354676864,46
599617917362363648,42
599617917370050304,44
599617917377737088,46
599617917385423744,46
599617917393110400,44
599617917400797184,23
599617917408483840,-63
599617917416170496,-154
599617917423857280,-28
599617917431543936,390
599617917439230720,811
599617917446917376,774
599617917454604032,217
599617917462290816,-224
599617917469977472,-168
599617917477664128,-30
599617917485350912,-18
599617917493037568,28
599617917500724352,46
599617917508411008,11
599617917516097664,16
599617917523784448,39
599617917531471104,32
599617917539157760,32
599617917546844544,44
599617917554531200,44
599617917562217984,44
599617917569904640,49
599617917577591296,53
599617917585278080,56
599617917592964736,60
599617917600651392,63
599617917608338176,65
599617917616024832,72
599617917623711616,79
599617917631398272,86
599617917639084928,91
599617917646771712,100
599617917654458368,107
599617917662145024,114
599617917669831808,124
599617917677518464,131
599617917685205248,135
599617917692891904,138
599617917700578560,135
599617917708265344,131
599617917715952000,126
599617917723638656,112
599617917731325440,93
599617917739012096,65
599617917746698880,37
599617917754385536,18
599617917762072192,7
599617917769758976,0
599617917777445632,-7
599617917785132288,-7
599617917792819072,-4
599617917800505728,-2
599617917808192512,0
599617917815879192,4
599617917823565824,7
599617917831252480,7
599617917838939264,7
599617917846625920,9
599617917854312576,11
599617917861999360,16
599617917869686016,16
599617917877372800,18
599617917885059456,21
599617917892746112,23
599617917900432896,23
599617917908119552,25
599617917915806208,30
599617917923492992,30
599617917931179648,30
599617917938866432,30
599617917946553088,32
599617917954239744,32
599617917961926528,32
599617917969613184,37
599617917977299840,37
599617917984986624,32
599617917992673280,35
599617918000360064,37
599617918008046720,37
599617918015733376,37
599617918023420160,39
599617918031106816,37
599617918038793472,37
599617918046480256,39
599617918054166912,39
599617918061853696,39
599617918069540352,39
599617918077227008,39
599617918084913792,39
599617918092600448,42
599617918100287104,39
599617918107973888,37
599617918115660544,37
599617918123347328,37
599617918131033984,39
599617918138720640,39
599617918146407424,39
599617918154094080,37
599617918161780736,39
599617918169467520,39
599617918177154176,39
599617918184840960,42
599617918192527616,42
599617918200214272,42
599617918207901056,42
599617918215587712,42
599617918223274368,42
599617918230961152,44
599617918238647808,42
599617918246334592,46
599617918254021248,51
599617918261707904,49
599617918269394688,46
599617918277081344,51
599617918284768000,51
599617918292454784,49
599617918300141440,51
599617918307828224,49
599617918315514880,42
599617918323201536,37
599617918330888320,49
599617918338574976,72
599617918346261632,84
599617918353948416,77
599617918361635072,72
599617918369321856,65
599617918377008575,49
599617918384695168,37
599617918392381824,42
599617918400068608,49
599617918407755264,44
599617918415441920,44
599617918423128704,49
599617918430815360,49
599617918438502144,44
599617918446188800,35
599617918453875456,-23
599617918461562240,-133
599617918469248896,-119
599617918476935552,198
599617918484622336,655
599617918492308992,802
599617918499995776,386
599617918507682432,-159
599617918515369088,-240
599617918523055872,-74
599617918530742528,-30
599617918538429184,9
599617918546115968,65
599617918553802624,35
599617918561489408,14
599617918569176064,42
599617918576862720,46
599617918584549504,37
599617918592236160,44
599617918599922816,51
599617918607609600,51
599617918615296256,51
599617918622983040,56
599617918630669696,60
599617918638356352,63
599617918646043136,67
599617918653729792,72
599617918661416448,77
599617918669103232,81
599617918676789888,88
599617918684476672,95
599617918692163328,100
599617918699849984,107
599617918707536768,114
599617918715223424,121
599617918722910080,128
599617918730596864,133
599617918738283520,138
599617918745970304,138
599617918753656960,135
599617918761343616,128
599617918769030400,116
599617918776717056,98
599617918784403712,70
599617918792090496,42
599617918799777152,23
599617918807463936,9
599617918815150592,-2
599617918822837248,-7
599617918830524032,-9
599617918838210688,-9
599617918845897344,-7
599617918853584128,-2
599617918861270784,0
599617918868957568,2
599617918876644224,4
599617918884330880,9
599617918892017664,11
599617918899704320,11
599617918907390976,14
599617918915077760,16
599617918922764416,18
599617918930451200,18
599617918938137954,21
599617918945824640,25
599617918953511296,25
599617918961198080,25
599617918968884736,30
599617918976571392,30
599617918984258176,28
599617918991944832,30
599617918999631616,30
599617919007318272,30
599617919015004928,28
599617919022691712,30
599617919030378368,30
599617919038065024,30
599617919045751808,28
599617919053438464,30
599617919061125248,32
599617919068811904,30
599617919076498560,30
599617919084185344,30
599617919091872000,32
599617919099558656,32
599617919107245440,30
599617919114932096,28
599617919122618880,30
599617919130305536,32
599617919137992192,32
599617919145678976,30
599617919153365632,32
599617919161052288,32
599617919168739072,35
599617919176425728,32
599617919184112512,35
599617919191799168,35
599617919199485824,35
599617919207172608,35
599617919214859264,32
599617919222545920,35
599617919230232704,37
599617919237919360,37
599617919245606144,35
599617919253292800,35
599617919260979456,37
599617919268666240,39
599617919276352896,37
599617919284039552,35
599617919291726336,37
599617919299412992,39
599617919307099776,37
599617919314786432,37
599617919322473088,39
599617919330159872,39
599617919337846528,37
599617919345533184,39
599617919353219968,42
599617919360906624,39
599617919368593408,30
599617919376280064,28
599617919383966720,44
599617919391653504,65
599617919399340160,74
599617919407026816,70
599617919414713600,60
599617919422400256,56
599617919430087040,42
599617919437773696,30
599617919445460352,35
599617919453147136,39
599617919460833792,37
599617919468520448,37
599617919476207232,39
599617919483893888,39
599617919491580672,39
599617919499267333,23
599617919506953856,-58
599617919514640384,-154
599617919522327040,-56
599617919530013568,339
599617919537700096,765
599617919545386624,779
599617919553073280,259
599617919560759808,-210
599617919568446336,-187
599617919576132992,-42
599617919583819520,-30
599617919591506048,11
599617919599192576,42
599617919606879232,4
599617919614565760,2
599617919622252288,28
599617919629938944,25
599617919637625472,21
599617919645312000,28
599617919652998528,32
599617919660685184,35
599617919668371712,39
599617919676058240,44
599617919683744896,46
599617919691431424,51
599617919699117952,53
599617919706804480,58
599617919714491136,63
599617919722177664,70
599617919729864192,74
599617919737550848,81
599617919745237376,88
599617919752923904,95
599617919760610432,102
599617919768297088,109
599617919775983616,116
599617919783670144,121
599617919791356800,124
599617919799043328,126
599617919806729856,124
599617919814416384,116
599617919822103040,105
599617919829789568,86
599617919837476096,60
599617919845162752,32
599617919852849280,14
599617919860535808,4
599617919868222336,-4
599617919875908992,-9
599617919883595520,-11
599617919891282048,-9
599617919898968704,-7
599617919906655232,-4
599617919914341760,-2
599617919922028288,0
599617919929714944,2
599617919937401472,4
599617919945088000,7
599617919952774656,9
599617919960461184,11
599617919968147712,11
599617919975834240,14
599617919983520896,16
599617919991207424,18
599617919998893952,18
599617920006580608,21
599617920014267136,21
599617920021953664,23
599617920029640192,23
599617920037326848,23
599617920045013376,23
599617920052699904,25
599617920060386542,25
599617920068072960,25
599617920075759360,28
599617920083445760,28
599617920091132288,28
599617920098818688,28
599617920106505088,28
599617920114191488,25
599617920121877888,23
599617920129564416,23
599617920137250816,25
599617920144937216,23
599617920152623616,23
599617920160310016,25
599617920167996544,28
599617920175682944,28
599617920183369344,28
599617920191055744,28
599617920198742144,30
599617920206428672,25
599617920214115072,23
599617920221801472,25
599617920229487872,28
599617920237174272,28
599617920244860800,28
599617920252547200,28
599617920260233600,28
599617920267920000,28
599617920275606400,28
599617920283292800,28
599617920290979328,30
599617920298665728,30
599617920306352128,30
599617920314038528,32
599617920321724928,32
599617920329411456,32
599617920337097856,32
599617920344784256,32
599617920352470656,35
599617920360157056,35
599617920367843584,35
599617920375529984,37
599617920383216384,37
599617920390902784,37
599617920398589184,37
599617920406275712,37
599617920413962112,39
599617920421648512,37
599617920429334912,37
599617920437021312,37
599617920444707840,39
599617920452394240,39
599617920460080640,39
599617920467767040,39
599617920475453440,37
599617920483139968,28
599617920490826368,28
599617920498512768,49
599617920506199168,72
599617920513885568,74
599617920521572096,65
599617920529258496,60
599617920536944896,56
599617920544631296,37
599617920552317696,28
599617920560004224,37
599617920567690624,42
599617920575377024,37
599617920583063424,37
599617920590749824,39
599617920598436352,42
599617920606122752,37
599617920613809152,4
599617920621495573,-98
599617920629182208,-166
599617920636868864,25
599617920644555648,481
599617920652242304,856
599617920659928960,706
599617920667615744,109
599617920675302400,-238
599617920682989184,-128
599617920690675840,-28
599617920698362496,-28
599617920706049280,14
599617920713735936,18
599617920721422592,-9
599617920729109376,7
599617920736796032,21
599617920744482816,14
599617920752169472,16
599617920759856128,25
599617920767542912,25
599617920775229568,28
599617920782916224,35
599617920790603008,37
599617920798289664,37
599617920805976448,44
599617920813663104,51
599617920821349760,53
599617920829036544,58
599617920836723200,65
599617920844409856,70
599617920852096640,74
599617920859783296,84
599617920867470080,88
599617920875156736,95
599617920882843392,105
599617920890530176,112
599617920898216832,116
599617920905903488,121
599617920913590272,121
599617920921276928,116
599617920928963712,109
599617920936650368,100
599617920944337024,81
599617920952023808,56
599617920959710464,32
599617920967397120,14
599617920975083904,2
599617920982770560,-7
599617920990457344,-11
599617920998144000,-11
599617921005830656,-9
599617921013517440,-7
599617921021204096,-7
599617921028890752,-4
599617921036577536,0
599617921044264192,2
599617921051950976,7
599617921059637632,7
599617921067324288,7
599617921075011072,11
599617921082697728,11
599617921090384384,11
599617921098071168,14
599617921105757824,18
599617921113444608,18
599617921121131264,18
599617921128817920,18
599617921136504704,18
599617921144191360,18
599617921151878016,21
599617921159564800,23
599617921167251456,23
599617921174938240,23
599617921182624952,23
599617921190311680,25
599617921197998464,25
599617921205685248,28
599617921213372032,25
599617921221058816,28
599617921228745600,28
599617921236432384,28
599617921244119040,30
599617921251805824,30
599617921259492608,28
599617921267179392,28
599617921274866176,30
599617921282552960,32
599617921290239744,32
599617921297926528,32
599617921305613312,30
599617921313300096,32
599617921320986880,35
599617921328673664,35
599617921336360320,35
599617921344047104,35
599617921351733888,35
599617921359420672,35
599617921367107456,37
599617921374794240,37
599617921382481024,37
599617921390167808,35
599617921397854592,35
599617921405541376,37
599617921413228160,37
599617921420914944,35
599617921428601600,37
599617921436288384,37
599617921443975168,37
599617921451661952,37
599617921459348736,37
599617921467035520,37
599617921474722304,37
599617921482409088,37
599617921490095872,37
599617921497782656,37
599617921505469440,37
599617921513156224,35
599617921520842880,37
599617921528529664,39
599617921536216448,39
599617921543903232,39
599617921551590016,35
599617921559276800,32
599617921566963584,53
599617921574650368,72
599617921582337152,70
599617921590023936,63
599617921597710720,58
599617921605397504,44
599617921613084288,28
599617921620770944,32
599617921628457728,39
599617921636144512,32
599617921643831296,30
599617921651518080,37
599617921659204864,39
599617921666891648,35
599617921674578432,14
599617921682265216,-74
599617921689952000,-166
599617921697638784,-42
599617921705325568,376
599617921713012224,788
599617921720699008,739
599617921728385792,180
599617921736072576,-257
599617921743759422,-187
599617921751446144,-42
599617921759132928,-30
599617921766819712,21
599617921774506496,49
599617921782193280,9
599617921789880064,11
599617921797566848,35
599617921805253504,28
599617921812940288,28
599617921820627072,39
599617921828313856,39
599617921836000640,37
599617921843687424,42
599617921851374208,49
599617921859060992,53
599617921866747776,56
599617921874434560,58
599617921882121344,65
599617921889808128,72
599617921897494784,77
599617921905181568,81
599617921912868352,88
599617921920555136,95
599617921928241920,102
599617921935928704,112
599617921943615488,119
599617921951302272,121
599617921958989056,128
599617921966675840,133
599617921974362624,135
599617921982049408,128
599617921989736064,119
599617921997422848,107
599617922005109632,86
599617922012796416,56
599617922020483200,30
599617922028169984,11
599617922035856768,-2
599617922043543552,-11
599617922051230336,-16
599617922058917120,-16
599617922066603904,-14
599617922074290688,-14
599617922081977344,-11
599617922089664128,-9
599617922097350912,-7
599617922105037696,-4
599617922112724480,-2
599617922120411264,0
599617922128098048,2
599617922135784832,2
599617922143471616,4
599617922151158400,9
599617922158845184,11
599617922166531968,11
599617922174218624,14
599617922181905408,16
599617922189592192,16
599617922197278976,18
599617922204965760,18
599617922212652544,21
599617922220339328,23
599617922228026112,23
599617922235712896,21
599617922243399680,23
599617922251086464,25
599617922258773248,25
599617922266460032,25
599617922274146688,25
599617922281833472,25
599617922289520256,28
599617922297207040,30
599617922304893888,28
599617922312580480,25
599617922320267008,28
599617922327953664,30
599617922335640192,30
599617922343326720,28
599617922351013248,30
599617922358699904,32
599617922366386432,30
599617922374072960,28
599617922381759616,28
599617922389446144,30
599617922397132672,32
599617922404819200,30
599617922412505856,32
599617922420192384,32
599617922427878912,32
599617922435565568,35
599617922443252096,35
599617922450938624,35
599617922458625152,35
599617922466311808,32
599617922473998336,35
599617922481684864,37
599617922489371520,37
599617922497058048,37
599617922504744576,37
599617922512431104,37
599617922520117760,37
599617922527804288,39
599617922535490816,42
599617922543177472,42
599617922550864000,35
599617922558550528,39
599617922566237056,63
599617922573923712,74
599617922581610240,65
599617922589296768,60
599617922596983424,53
599617922604669952,37
599617922612356480,25
599617922620043008,35
599617922627729664,39
599617922635416192,32
599617922643102720,30
599617922650789376,35
599617922658475904,37
599617922666162432,32
599617922673848960,-9
599617922681535616,-114
599617922689222144,-152
599617922696908672,88
599617922704595328,545
599617922712281856,818
599617922719968384,545
599617922727654912,-42
599617922735341568,-264
599617922743028096,-107
599617922750714624,-35
599617922758401280,-14
599617922766087808,49
599617922773774336,37
599617922781460864,4
599617922789147520,28
599617922796834048,39
599617922804520576,30
599617922812207232,37
599617922819893760,44
599617922827580288,42
599617922835266816,46
599617922842953472,51
599617922850640000,53
599617922858326528,56
599617922866013093,60
599617922873699712,67
599617922881386368,72
599617922889073152,74
599617922896759808,79
599617922904446464,86
599617922912133248,93
599617922919819904,98
599617922927506688,105
599617922935193344,116
599617922942880000,121
599617922950566784,124
599617922958253440,128
599617922965940096,131
599617922973626880,128
599617922981313536,124
599617922989000320,116
599617922996686976,98
599617923004373632,70
599617923012060416,42
599617923019747072,18
599617923027433728,4
599617923035120512,-7
599617923042807168,-14
599617923050493952,-16
599617923058180608,-16
599617923065867264,-16
599617923073554048,-14
599617923081240704,-9
599617923088927360,-7
599617923096614144,-4
599617923104300800,-2
599617923111987584,0
599617923119674240,2
599617923127360896,2
599617923135047680,4
599617923142734336,4
599617923150420992,7
599617923158107776,9
599617923165794432,11
599617923173481216,14
599617923181167872,16
599617923188854528,16
599617923196541312,18
599617923204227968,21
599617923211914624,21
599617923219601408,23
599617923227288064,25
599617923234974848,25
599617923242661504,23
599617923250348160,25
599617923258034944,28
599617923265721600,25
599617923273408256,25
599617923281095040,25
599617923288781696,25
599617923296468480,28
599617923304155136,28
599617923311841792,28
599617923319528576,30
599617923327215232,30
599617923334901888,30
599617923342588672,30
599617923350275328,30
599617923357962112,32
599617923365648768,32
599617923373335424,32
599617923381022208,32
599617923388708864,30
599617923396395520,32
599617923404082304,35
599617923411768960,35
599617923419455744,32
599617923427142472,32
599617923434829184,32
599617923442515840,35
599617923450202624,35
599617923457889280,35
599617923465575936,35
599617923473262720,35
599617923480949376,32
599617923488636160,32
599617923496322816,35
599617923504009472,35
599617923511696256,35
599617923519382912,32
599617923527069568,35
599617923534756352,37
599617923542443008,35
599617923550129792,35
599617923557816448,37
599617923565503104,37
599617923573189888,35
599617923580876544,35
599617923588563200,37
599617923596249984,39
599617923603936640,37
599617923611623424,37
599617923619310080,39
599617923626996736,42
599617923634683520,39
599617923642370176,32
599617923650056832,39
599617923657743616,60
599617923665430272,72
599617923673117056,60
599617923680803712,58
599617923688490368,58
599617923696177152,37
599617923703863808,23
599617923711550464,32
599617923719237248,39
599617923726923904,35
599617923734610688,35
599617923742297344,37
599617923749984000,39
599617923757670784,32
599617923765357440,-11
599617923773044096,-116
599617923780730880,-154
599617923788417536,93
599617923796104320,566
599617923803790976,875
599617923811477632,617
599617923819164416,11
599617923826851072,-238
599617923834537728,-95
599617923842224512,-23
599617923849911168,-21
599617923857597952,25
599617923865284608,16
599617923872971264,-7
599617923880658048,14
599617923888344704,23
599617923896031360,16
599617923903718144,21
599617923911404800,28
599617923919091584,28
599617923926778240,30
599617923934464896,35
599617923942151680,37
599617923949838336,42
599617923957524992,46
599617923965211776,49
599617923972898432,51
599617923980585216,56
599617923988271851,63
599617923995958528,70
599617924003645184,74
599617924011331968,81
599617924019018624,86
599617924026705280,91
599617924034392064,100
599617924042078720,107
599617924049765504,112
599617924057452160,114
599617924065138816,114
599617924072825600,112
599617924080512256,105
599617924088198912,93
599617924095885696,74
599617924103572352,49
599617924111259136,23
599617924118945792,7
599617924126632448,-2
599617924134319232,-9
599617924142005888,-14
599617924149692544,-16
599617924157379328,-18
599617924165065984,-16
599617924172752768,-11
599617924180439424,-9
599617924188126080,-4
599617924195812864,-2
599617924203499520,-2
599617924211186176,0
599617924218872960,2
599617924226559616,4
599617924234246400,4
599617924241933056,7
599617924249619712,11
599617924257306496,11
599617924264993152,14
599617924272679808,14
599617924280366592,16
599617924288053248,16
599617924295740032,16
599617924303426688,18
599617924311113344,18
599617924318800128,21
599617924326486784,21
599617924334173440,23
599617924341860224,25
599617924349546880,25
599617924357233664,25
599617924364920320,25
599617924372606976,25
599617924380293760,25
599617924387980416,25
599617924395667072,28
599617924403353856,28
599617924411040512,25
599617924418727296,28
599617924426413952,28
599617924434100608,28
599617924441787392,25
599617924449474048,25
599617924457160704,28
599617924464847488,30
599617924472534144,28
599617924480220928,28
599617924487907584,30
599617924495594240,30
599617924503281024,30
599617924510967680,30
599617924518654336,32
599617924526341120,32
599617924534027776,30
599617924541714560,30
599617924549401230,30
599617924557087872,30
599617924564774528,30
599617924572461312,30
599617924580147968,30
599617924587834624,30
599617924595521408,30
599617924603208064,30
599617924610894848,32
599617924618581504,32
599617924626268160,30
599617924633954944,30
599617924641641600,32
599617924649328256,32
599617924657015040,28
599617924664701696,30
599617924672388480,32
599617924680075136,30
599617924687761792,30
599617924695448576,32
599617924703135232,35
599617924710821888,35
599617924718508672,32
599617924726195328,32
599617924733882112,37
599617924741568768,37
599617924749255424,32
599617924756942208,30
599617924764628864,46
599617924772315520,67
599617924780002304,67
599617924787688960,58
599617924795375744,60
599617924803062400,51
599617924810749056,28
599617924818435840,23
599617924826122496,35
599617924833809152,37
599617924841495936,35
599617924849182592,37
599617924856869376,37
599617924864556032,37
599617924872242688,23
599617924879929472,-51
599617924887616128,-156
599617924895302784,-84
599617924902989568,292
599617924910676224,753
599617924918363008,839
599617924926049664,346
599617924933736320,-177
599617924941423104,-201
599617924949109760,-49
599617924956796416,-32
599617924964483200,2
599617924972169856,35
599617924979856640,0
599617924987543296,-2
599617924995229952,23
599617925002916736,21
599617925010603392,18
599617925018290048,28
599617925025976832,32
599617925033663488,30
599617925041350272,35
599617925049036928,39
599617925056723584,44
599617925064410368,49
599617925072097024,51
599617925079783680,56
599617925087470464,60
599617925095157120,65
599617925102843904,72
599617925110530613,79
599617925118217216,86
599617925125903872,93
599617925133590656,100
599617925141277312,107
599617925148963968,114
599617925156650752,119
599617925164337408,121
599617925172024192,124
599617925179710848,124
599617925187397504,116
599617925195084288,105
599617925202770944,86
599617925210457600,63
599617925218144384,35
599617925225831040,11
599617925233517824,0
599617925241204480,-9
599617925248891136,-16
599617925256577920,-18
599617925264264576,-18
599617925271951232,-18
599617925279638016,-16
599617925287324672,-11
599617925295011456,-9
599617925302698112,-7
599617925310384768,-4
599617925318071552,-2
599617925325758208,0
599617925333444864,2
599617925341131648,4
599617925348818304,7
599617925356505088,9
599617925364191744,9
599617925371878400,14
599617925379565184,16
599617925387251840,16
599617925394938496,16
599617925402625280,18
599617925410311936,21
599617925417998720,21
599617925425685376,23
599617925433372032,23
599617925441058816,23
599617925448745472,23
599617925456432128,25
599617925464118912,25
599617925471805568,25
599617925479492352,25
599617925487179008,28
599617925494865664,25
599617925502552448,28
599617925510239104,28
599617925517925760,28
599617925525612544,25
599617925533299200,25
599617925540985984,28
599617925548672640,28
599617925556359296,30
599617925564046080,28
599617925571732736,30
599617925579419392,30
599617925587106176,28
599617925594792832,30
599617925602479616,30
599617925610166272,30
599617925617852928,30
599617925625539712,32
599617925633226368,32
599617925640913024,32
599617925648599808,32
599617925656286464,32
599617925663973248,32
599617925671659992,30
599617925679346560,28
599617925687033088,30
599617925694719488,32
599617925702406016,30
599617925710092544,30
599617925717779072,32
599617925725465472,35
599617925733152000,30
599617925740838528,30
599617925748525056,32
599617925756211456,32
599617925763897984,32
599617925771584512,35
599617925779271040,35
599617925786957440,28
599617925794643968,30
599617925802330496,46
599617925810017024,65
599617925817703424,65
599617925825389952,58
599617925833076480,51
599617925840763008,37
599617925848449408,23
599617925856135936,28
599617925863822464,35
599617925871508992,32
599617925879195392,30
599617925886881920,32
599617925894568448,32
599617925902254848,32
599617925909941376,9
599617925917627904,-84
599617925925314432,-170
599617925933000832,-21
599617925940687360,407
599617925948373888,790
599617925956060416,690
599617925963746816,114
599617925971433344,-271
599617925979119872,-175
599617925986806400,-49
599617925994492800,-32
599617926002179328,32
599617926009865856,49
599617926017552384,4
599617926025238784,16
599617926032925312,39
599617926040611840,28
599617926048298368,28
599617926055984768,37
599617926063671296,39
599617926071357824,39
599617926079044352,46
599617926086730752,49
599617926094417280,51
599617926102103808,56
599617926109790208,60
599617926117476736,67
599617926125163264,72
599617926132849792,79
599617926140536192,81
599617926148222720,88
599617926155909248,95
599617926163595776,102
599617926171282176,107
599617926178968704,114
599617926186655232,121
599617926194341760,126
599617926202028160,128
599617926209714688,128
599617926217401216,124
599617926225087744,116
599617926232774114,105
599617926240460672,79
599617926248147200,51
599617926255833600,25
599617926263520128,7
599617926271206656,-4
599617926278893184,-16
599617926286579584,-21
599617926294266112,-21
599617926301952640,-18
599617926309639168,-18
599617926317325568,-16
599617926325012096,-11
599617926332698624,-9
599617926340385152,-9
599617926348071552,-7
599617926355758080,-2
599617926363444608,0
599617926371131136,0
599617926378817536,4
599617926386504064,9
599617926394190592,9
599617926401877120,11
599617926409563520,14
599617926417250048,16
599617926424936576,16
599617926432623104,18
599617926440309504,18
599617926447996032,21
599617926455682560,21
599617926463368960,21
599617926471055488,21
599617926478742016,21
599617926486428544,23
599617926494114944,23
599617926501801472,23
599617926509488000,23
599617926517174528,25
599617926524860928,25
599617926532547456,28
599617926540233984,28
599617926547920512,28
599617926555606912,28
599617926563293440,25
599617926570979968,25
599617926578666496,28
599617926586352896,28
599617926594039424,28
599617926601725952,28
599617926609412480,28
599617926617098880,30
599617926624785408,30
599617926632471936,30
599617926640158336,30
599617926647844864,30
599617926655531392,32
599617926663217920,30
599617926670904320,30
599617926678590848,28
599617926686277376,28
599617926693963904,30
599617926701650304,30
599617926709336832,32
599617926717023360,32
599617926724709888,30
599617926732396288,30
599617926740082816,32
599617926747769344,32
599617926755455872,30
599617926763142272,32
599617926770828800,35
599617926778515328,35
599617926786201856,32
599617926793888232,35
599617926801574912,35
599617926809261568,37
599617926816948352,37
599617926824635008,35
599617926832321664,30
599617926840008448,37
599617926847695104,58
599617926855381888,67
599617926863068544,60
599617926870755200,53
599617926878441984,46
599617926886128640,30
599617926893815296,21
599617926901502080,28
599617926909188736,35
599617926916875520,32
599617926924562176,30
599617926932248832,30
599617926939935616,32
599617926947622272,25
599617926955308928,-28
599617926962995712,-140
599617926970682368,-140
599617926978369152,163
599617926986055808,634
599617926993742464,844
599617927001429248,481
599617927009115904,-95
599617927016802560,-245
599617927024489344,-84
599617927032176000,-35
599617927039862784,-14
599617927047549440,37
599617927055236096,14
599617927062922880,-7
599617927070609536,16
599617927078296192,23
599617927085982976,16
599617927093669632,23
599617927101356416,30
599617927109043072,28
599617927116729728,30
599617927124416512,35
599617927132103168,39
599617927139789824,44
599617927147476608,49
599617927155163264,51
599617927162850048,58
599617927170536704,60
599617927178223360,63
599617927185910144,70
599617927193596800,77
599617927201283456,84
599617927208970240,91
599617927216656896,100
599617927224343680,109
599617927232030336,114
599617927239716992,119
599617927247403776,121
599617927255090432,121
599617927262777088,116
599617927270463872,107
599617927278150528,91
599617927285837312,67
599617927293523968,39
599617927301210624,16
599617927308897408,2
599617927316584064,-9
599617927324270720,-16
599617927331957504,-18
599617927339644160,-16
599617927347330944,-16
599617927355017611,-16
599617927362704256,-11
599617927370390912,-9
599617927378077696,-7
599617927385764352,-4
599617927393451008,-4
599617927401137792,-2
599617927408824448,0
599617927416511232,0
599617927424197888,2
599617927431884544,4
599617927439571328,7
599617927447257984,9
599617927454944640,11
599617927462631424,11
599617927470318080,14
599617927478004864,14
599617927485691520,16
599617927493378176,16
599617927501064960,18
599617927508751616,18
599617927516438272,18
599617927524125056,18
599617927531811712,18
599617927539498496,18
599617927547185152,23
599617927554871808,23
599617927562558592,23
599617927570245248,23
599617927577931904,23
599617927585618688,23
599617927593305344,23
599617927600992128,23
599617927608678784,23
599617927616365440,25
599617927624052224,25
599617927631738880,25
599617927639425536,28
599617927647112320,28
599617927654798976,28
599617927662485760,28
599617927670172416,25
599617927677859072,25
599617927685545856,25
599617927693232512,25
599617927700919168,28
599617927708605952,28
599617927716292608,25
599617927723979392,28
599617927731666048,30
599617927739352704,28
599617927747039488,30
599617927754726144,30
599617927762412800,30
599617927770099584,30
599617927777786240,30
599617927785473024,30
599617927793159680,32
599617927800846336,32
599617927808533120,32
599617927816219776,32
599617927823906432,32
599617927831593216,35
599617927839279872,32
599617927846966656,32
599617927854653312,35
599617927862339968,35
599617927870026752,35
599617927877713408,35
599617927885400064,35
599617927893086848,35
599617927900773504,35
599617927908460288,35
599617927916146990,37
599617927923833600,37
599617927931520256,37
599617927939207040,30
599617927946893696,23
599617927954580352,32
599617927962267136,56
599617927969953792,67
599617927977640576,65
599617927985327232,56
599617927993013888,51
599617928000700672,39
599617928008387328,23
599617928016073984,25
599617928023760768,35
599617928031447424,32
599617928039134208,30
599617928046820864,32
599617928054507520,35
599617928062194304,32
599617928069880960,9
599617928077567616,-81
599617928085254400,-175
599617928092941056,-46
599617928100627840,381
599617928108314496,818
599617928116001152,797
599617928123687936,238
599617928131374592,-210
599617928139061248,-163
599617928146748032,-37
599617928154434688,-35
599617928162121472,4
599617928169808128,21
599617928177494784,-11
599617928185181568,-4
599617928192868224,14
599617928200554880,9
599617928208241664,11
599617928215928320,18
599617928223615104,21
599617928231301760,21
599617928238988416,28
599617928246675200,32
599617928254361856,32
599617928262048512,39
599617928269735296,44
599617928277421952,46
599617928285108736,51
599617928292795392,56
599617928300482048,63
599617928308168832,70
599617928315855488,74
599617928323542144,81
599617928331228928,91
599617928338915584,98
599617928346602368,107
599617928354289024,114
599617928361975680,116
599617928369662464,119
599617928377349120,119
599617928385035776,114
599617928392722560,105
599617928400409216,86
599617928408096000,60
599617928415782656,37
599617928423469312,16
599617928431156096,2
599617928438842752,-9
599617928446529408,-14
599617928454216192,-16
599617928461902848,-16
599617928469589632,-14
599617928477276373,-9
599617928484962816,-7
599617928492649216,-7
599617928500335616,-7
599617928508022144,-2
599617928515708544,0
599617928523394944,2
599617928531081344,2
599617928538767744,4
599617928546454272,4
599617928554140672,4
599617928561827072,7
599617928569513472,9
599617928577199872,11
599617928584886400,11
599617928592572800,11
599617928600259200,14
599617928607945600,16
599617928615632000,16
599617928623318528,18
599617928631004928,16
599617928638691328,18
599617928646377728,21
599617928654064128,21
599617928661750656,21
599617928669437056,23
599617928677123456,23
599617928684809856,23
599617928692496256,23
599617928700182656,21
599617928707869184,21
599617928715555584,21
599617928723241984,21
599617928730928384,21
599617928738614784,23
599617928746301312,25
599617928753987712,25
599617928761674112,23
599617928769360512,23
599617928777046912,23
599617928784733440,25
599617928792419840,28
599617928800106240,28
599617928807792640,30
599617928815479040,30
599617928823165568,28
599617928830851968,30
599617928838538368,30
599617928846224768,28
599617928853911168,30
599617928861597696,32
599617928869284096,32
599617928876970496,32
599617928884656896,32
599617928892343296,30
599617928900029824,32
599617928907716224,32
599617928915402624,32
599617928923089024,32
599617928930775424,32
599617928938461952,35
599617928946148352,32
599617928953834752,32
599617928961521152,35
599617928969207552,37
599617928976894080,35
599617928984580480,35
599617928992266880,35
599617928999953280,35
599617929007639680,32
599617929015326208,35
599617929023012608,35
599617929030699008,35
599617929038385408,35
599617929046071936,32
599617929053758464,25
599617929061445120,25
599617929069131648,46
599617929076818176,67
599617929084504704,70
599617929092191360,63
599617929099877888,58
599617929107564416,46
599617929115251072,30
599617929122937600,23
599617929130624128,32
599617929138310656,35
599617929145997312,30
599617929153683840,30
599617929161370368,35
599617929169057024,35
599617929176743552,32
599617929184430080,0
599617929192116608,-100
599617929199803264,-175
599617929207489792,4
599617929215176320,456
599617929222862976,828
599617929230549504,687
599617929238236032,91
599617929245922560,-273
599617929253609216,-161
599617929261295744,-42
599617929268982272,-35
599617929276668928,23
599617929284355456,35
599617929292041984,-4
599617929299728512,7
599617929307415168,28
599617929315101696,18
599617929322788224,18
599617929330474880,30
599617929338161408,30
599617929345847936,30
599617929353534464,37
599617929361221120,42
599617929368907648,44
599617929376594176,46
599617929384280832,53
599617929391967360,58
599617929399653888,63
599617929407340416,70
599617929415027072,77
599617929422713600,79
599617929430400128,86
599617929438086784,98
599617929445773312,105
599617929453459840,112
599617929461146368,121
599617929468833024,126
599617929476519552,126
599617929484206080,126
599617929491892736,124
599617929499579264,119
599617929507265792,105
599617929514952320,81
599617929522638976,56
599617929530325504,30
599617929538012032,9
599617929545698688,-7
599617929553385216,-16
599617929561071744,-21
599617929568758272,-23
599617929576444928,-25
599617929584131456,-23
599617929591817984,-18
599617929599504613,-16
599617929607191296,-16
599617929614877952,-11
599617929622564736,-7
599617929630251392,-7
599617929637938048,-7
599617929645624832,-4
599617929653311488,-2
599617929660998272,0
599617929668684928,2
599617929676371584,4
599617929684058368,7
599617929691745024,9
599617929699431680,9
599617929707118464,9
599617929714805120,9
599617929722491904,9
599617929730178560,11
599617929737865216,14
599617929745552000,16
599617929753238656,16
599617929760925312,14
599617929768612096,16
599617929776298752,18
599617929783985536,16
599617929791672192,16
599617929799358848,16
599617929807045632,18
599617929814732288,18
599617929822418944,18
599617929830105728,21
599617929837792384,21
599617929845479168,21
599617929853165824,21
599617929860852480,23
599617929868539264,21
599617929876225920,23
599617929883912576,23
599617929891599360,23
599617929899286016,25
599617929906972800,25
599617929914659456,25
599617929922346112,25
599617929930032896,25
599617929937719552,25
599617929945406208,25
599617929953092992,25
599617929960779648,28
599617929968466432,28
599617929976153088,28
599617929983839744,28
599617929991526528,25
599617929999213184,28
599617930006899840,30
599617930014586624,28
599617930022273280,28
599617930029960064,28
599617930037646720,28
599617930045333376,30
599617930053020160,32
599617930060706816,30
599617930068393472,28
599617930076080256,30
599617930083766912,25
599617930091453696,18
599617930099140352,28
599617930106827008,51
599617930114513792,63
599617930122200448,60
599617930129887104,56
599617930137573888,49
599617930145260544,35
599617930152947328,21
599617930160633992,25
599617930168320640,32
599617930176007296,30
599617930183694080,30
599617930191380736,30
599617930199067392,32
599617930206754176,30
599617930214440832,16
599617930222127616,-53
599617930229814272,-163
599617930237500928,-112
599617930245187712,250
599617930252874368,704
599617930260561024,793
599617930268247808,322
599617930275934464,-203
599617930283621248,-231
599617930291307904,-70
599617930298994560,-46
599617930306681344,-2
599617930314368000,49
599617930322054656,11
599617930329741440,0
599617930337428096,28
599617930345114880,28
599617930352801536,18
599617930360488192,30
599617930368174976,35
599617930375861632,32
599617930383548288,37
599617930391235072,42
599617930398921728,44
599617930406608512,49
599617930414295168,56
599617930421981824,58
599617930429668608,63
599617930437355264,70
599617930445041920,72
599617930452728704,79
599617930460415360,88
599617930468102144,95
599617930475788800,100
599617930483475456,109
599617930491162240,116
599617930498848896,124
599617930506535552,126
599617930514222336,126
599617930521908992,126
599617930529595776,119
599617930537282432,107
599617930544969088,88
599617930552655872,63
599617930560342528,35
599617930568029184,11
599617930575715968,-4
599617930583402624,-14
599617930591089408,-21
599617930598776064,-23
599617930606462720,-23
599617930614149504,-21
599617930621836160,-18
599617930629522816,-18
599617930637209600,-16
599617930644896256,-14
599617930652583040,-9
599617930660269696,-9
599617930667956352,-7
599617930675643136,-2
599617930683329792,0
599617930691016448,2
599617930698703232,4
599617930706389888,4
599617930714076672,7
599617930721763371,7
599617930729449984,9
599617930737136640,11
599617930744823424,11
599617930752510080,11
599617930760196736,14
599617930767883520,16
599617930775570176,14
599617930783256960,14
599617930790943616,16
599617930798630272,16
599617930806317056,16
599617930814003712,16
599617930821690368,18
599617930829377152,18
599617930837063808,18
599617930844750592,18
599617930852437248,18
599617930860123904,21
599617930867810688,21
599617930875497344,21
599617930883184000,23
599617930890870784,23
599617930898557440,21
599617930906244224,23
599617930913930880,25
599617930921617536,25
599617930929304320,25
599617930936990976,25
599617930944677632,23
599617930952364416,25
599617930960051072,25
599617930967737856,25
599617930975424512,28
599617930983111168,28
599617930990797952,25
599617930998484608,28
599617931006171264,28
599617931013858048,28
599617931021544704,28
599617931029231488,28
599617931036918144,28
599617931044604800,28
599617931052291584,28
599617931059978240,28
599617931067664896,30
599617931075351680,28
599617931083038336,28
599617931090725120,32
599617931098411776,32
599617931106098432,30
599617931113785216,30
599617931121471872,30
599617931129158528,32
599617931136845312,32
599617931144531968,32
599617931152218752,32
599617931159905408,35
599617931167592064,28
599617931175278848,21
599617931182965504,30
599617931190652160,53
599617931198338944,67
599617931206025600,65
599617931213712384,56
599617931221399040,49
599617931229085696,35
599617931236772480,21
599617931244459136,23
599617931252145792,30
599617931259832576,28
599617931267519232,28
599617931275206016,30
599617931282892754,30
599617931290579456,30
599617931298266112,18
599617931305952896,-53
599617931313639552,-163
599617931321326208,-102
599617931329012992,264
599617931336699648,727
599617931344386432,832
599617931352073088,367
599617931359759744,-166
599617931367446528,-210
599617931375133184,-58
599617931382819840,-39
599617931390506624,-9
599617931398193280,28
599617931405880064,-4
599617931413566720,-11
599617931421253376,14
599617931428940160,14
599617931436626816,9
599617931444313472,18
599617931452000256,21
599617931459686912,21
599617931467373696,25
599617931475060352,28
599617931482747008,32
599617931490433792,35
599617931498120448,39
599617931505807104,44
599617931513493888,49
599617931521180544,53
599617931528867328,60
599617931536553984,65
599617931544240640,72
599617931551927424,77
599617931559614080,84
599617931567300736,93
599617931574987520,102
599617931582674176,107
599617931590360960,112
599617931598047616,114
599617931605734272,114
599617931613421056,109
599617931621107712,102
599617931628794368,88
599617931636481152,63
599617931644167808,37
599617931651854592,16
599617931659541248,0
599617931667227904,-11
599617931674914688,-18
599617931682601344,-21
599617931690288000,-21
599617931697974784,-21
599617931705661440,-18
599617931713348224,-16
599617931721034880,-14
599617931728721536,-16
599617931736408320,-11
599617931744094976,-7
599617931751781632,-7
599617931759468416,-4
599617931767155072,-2
599617931774841856,0
599617931782528512,2
599617931790215168,4
599617931797901952,4
599617931805588608,7
599617931813275264,7
599617931820962048,9
599617931828648704,9
599617931836335488,11
599617931844022133,14
599617931851708800,14
599617931859395456,14
599617931867082240,14
599617931874768896,16
599617931882455552,16
599617931890142336,16
599617931897828992,18
599617931905515776,18
599617931913202432,18
599617931920889088,16
599617931928575872,18
599617931936262528,18
599617931943949184,18
599617931951635968,18
599617931959322624,18
599617931967009408,18
599617931974696064,21
599617931982382720,21
599617931990069504,21
599617931997756160,23
599617932005442816,23
599617932013129600,23
599617932020816256,23
599617932028503040,25
599617932036189696,25
599617932043876352,25
599617932051563136,25
599617932059249792,25
599617932066936448,25
599617932074623232,25
599617932082309888,25
599617932089996672,28
599617932097683328,25
599617932105369984,28
599617932113056768,28
599617932120743424,28
599617932128430080,25
599617932136116864,28
599617932143803520,28
599617932151490304,30
599617932159176960,30
599617932166863616,30
599617932174550400,30
599617932182237056,30
599617932189923712,30
599617932197610496,32
599617932205297152,32
599617932212983936,30
599617932220670592,30
599617932228357248,30
599617932236044032,28
599617932243730688,30
599617932251417344,30
599617932259104128,30
599617932266790784,32
599617932274477568,32
599617932282164224,30
599617932289850880,32
599617932297537664,28
599617932305224320,18
599617932312910976,28
599617932320597760,51
599617932328284416,65
599617932335971200,63
599617932343657856,58
599617932351344512,53
599617932359031296,42
599617932366717952,23
599617932374404608,23
599617932382091392,32
599617932389778048,30
599617932397464832,28
599617932405151512,30
599617932412838016,32
599617932420524544,30
599617932428210944,23
599617932435897472,-28
599617932443584000,-140
599617932451270528,-149
599617932458956928,140
599617932466643456,624
599617932474329984,877
599617932482016512,540
599617932489702912,-56
599617932497389440,-238
599617932505075968,-91
599617932512762496,-42
599617932520448896,-23
599617932528135424,21
599617932535821952,0
599617932543508480,-16
599617932551194880,7
599617932558881408,11
599617932566567936,7
599617932574254464,14
599617932581940864,18
599617932589627392,18
599617932597313920,23
599617932605000448,28
599617932612686848,32
599617932620373376,35
599617932628059904,39
599617932635746304,42
599617932643432832,49
599617932651119360,53
599617932658805888,58
599617932666492288,65
599617932674178816,70
599617932681865344,79
599617932689551872,86
599617932697238272,93
599617932704924800,100
599617932712611328,109
599617932720297856,114
599617932727984256,114
599617932735670784,112
599617932743357312,109
599617932751043840,105
599617932758730240,91
599617932766416768,70
599617932774103296,44
599617932781789824,21
599617932789476224,0
599617932797162752,-11
599617932804849280,-18
599617932812535808,-23
599617932820222208,-25
599617932827908736,-25
599617932835595264,-23
599617932843281664,-21
599617932850968192,-16
599617932858654720,-14
599617932866341248,-11
599617932874027648,-9
599617932881714176,-7
599617932889400704,-4
599617932897087232,-2
599617932904773632,0
599617932912460160,2
599617932920146688,4
599617932927833216,7
599617932935519616,9
599617932943206144,9
599617932950892672,9
599617932958579200,14
599617932966265634,14
599617932973952128,11
599617932981638656,16
599617932989325056,18
599617932997011584,18
599617933004698112,18
599617933012384640,18
599617933020071040,18
599617933027757568,14
599617933035444096,16
599617933043130624,21
599617933050817024,18
599617933058503552,16
599617933066190080,18
599617933073876608,23
599617933081563008,18
599617933089249536,16
599617933096936064,21
599617933104622592,23
599617933112308992,21
599617933119995520,21
599617933127682048,23
599617933135368576,21
599617933143054976,21
599617933150741504,23
599617933158428032,23
599617933166114560,23
599617933173800960,23
599617933181487488,21
599617933189174016,21
599617933196860416,21
599617933204546944,21
599617933212233472,23
599617933219920000,25
599617933227606400,23
599617933235292928,21
599617933242979456,21
599617933250665984,23
599617933258352384,23
599617933266038912,21
599617933273725440,23
599617933281411968,25
599617933289098368,23
599617933296784896,25
599617933304471424,25
599617933312157952,28
599617933319844352,28
599617933327530880,25
599617933335217408,28
599617933342903936,30
599617933350590336,28
599617933358276864,25
599617933365963392,28
599617933373649792,30
599617933381336320,23
599617933389022848,18
599617933396709376,30
599617933404395776,53
599617933412082304,63
599617933419768832,58
599617933427455360,51
599617933435141760,46
599617933442828288,28
599617933450514816,18
599617933458201344,28
599617933465887744,32
599617933473574272,25
599617933481260800,25
599617933488947328,30
599617933496633728,32
599617933504320256,30
599617933512006784,7
599617933519693312,-84
599617933527379752,-175
599617933535066368,-39
599617933542753024,383
599617933550439808,781
599617933558126464,706
599617933565813120,135
599617933573499904,-276
599617933581186560,-187
599617933588873344,-51
599617933596560000,-42
599617933604246656,16
599617933611933440,42
599617933619620096,0
599617933627306752,4
599617933634993536,28
599617933642680192,23
599617933650366976,21
599617933658053632,32
599617933665740288,35
599617933673427072,35
599617933681113728,39
599617933688800384,44
599617933696487168,46
599617933704173824,49
599617933711860608,56
599617933719547264,60
599617933727233920,63
599617933734920704,67
599617933742607360,72
599617933750294016,77
599617933757980800,86
599617933765667456,93
599617933773354240,100
599617933781040896,107
599617933788727552,114
599617933796414336,121
599617933804100992,124
599617933811787648,124
599617933819474432,121
599617933827161088,114
599617933834847872,102
599617933842534528,81
599617933850221184,53
599617933857907968,25
599617933865594624,7
599617933873281280,-7
599617933880968064,-16
599617933888654720,-23
599617933896341504,-28
599617933904028160,-28
599617933911714816,-23
599617933919401600,-21
599617933927088256,-21
599617933934774912,-16
599617933942461696,-14
599617933950148352,-11
599617933957835136,-11
599617933965521792,-9
599617933973208448,-2
599617933980895232,0
599617933988581888,0
599617933996268544,0
599617934003955328,4
599617934011641984,4
599617934019328768,7
599617934027015424,9
599617934034702080,9
599617934042388864,9
599617934050075520,11
599617934057762176,14
599617934065448960,14
599617934073135616,14
599617934080822400,14
599617934088509131,14
599617934096195840,14
599617934103882496,16
599617934111569280,16
599617934119255936,16
599617934126942592,18
599617934134629376,16
599617934142316032,14
599617934150002816,16
599617934157689472,18
599617934165376128,18
599617934173062912,16
599617934180749568,18
599617934188436224,21
599617934196123008,21
599617934203809664,21
599617934211496448,21
599617934219183104,21
599617934226869760,21
599617934234556544,21
599617934242243200,21
599617934249929856,21
599617934257616640,21
599617934265303296,21
599617934272990080,21
599617934280676736,23
599617934288363392,23
599617934296050176,23
599617934303736832,23
599617934311423488,23
599617934319110272,25
599617934326796928,25
599617934334483712,25
599617934342170368,25
599617934349857024,25
599617934357543808,28
599617934365230464,28
599617934372917120,25
599617934380603904,25
599617934388290560,28
599617934395977344,23
599617934403664000,21
599617934411350656,37
599617934419037440,58
599617934426724096,60
599617934434410752,53
599617934442097536,53
599617934449784192,44
599617934457470976,28
599617934465157632,18
599617934472844288,23
599617934480531072,25
599617934488217728,25
599617934495904384,23
599617934503591168,25
599617934511277824,30
599617934518964608,28
599617934526651264,-4
599617934534337920,-102
599617934542024704,-173
599617934549711360,4
599617934557398016,444
599617934565084800,804
599617934572771456,664
599617934580458240,81
599617934588144896,-266
599617934595831552,-149
599617934603518336,-42
599617934611204992,-37
599617934618891648,18
599617934626578432,32
599617934634265088,-7
599617934641951872,2
599617934649638514,23
599617934657325184,14
599617934665011840,14
599617934672698624,23
599617934680385280,25
599617934688071936,28
599617934695758720,35
599617934703445376,37
599617934711132160,35
599617934718818816,39
599617934726505472,49
599617934734192256,51
599617934741878912,53
599617934749565568,58
599617934757252352,65
599617934764939008,70
599617934772625792,77
599617934780312448,86
599617934787999104,95
599617934795685888,100
599617934803372544,107
599617934811059200,114
599617934818745984,116
599617934826432640,116
599617934834119424,116
599617934841806080,109
599617934849492736,98
599617934857179520,74
599617934864866176,46
599617934872552832,21
599617934880239616,2
599617934887926272,-11
599617934895613056,-21
599617934903299712,-25
599617934910986368,-28
599617934918673152,-28
599617934926359808,-23
599617934934046464,-21
599617934941733248,-16
599617934949419904,-16
599617934957106688,-14
599617934964793344,-11
599617934972480000,-9
599617934980166784,-7
599617934987853440,-4
599617934995540096,-2
599617935003226880,0
599617935010913536,0
599617935018600320,2
599617935026286976,4
599617935033973632,7
599617935041660416,9
599617935049347072,9
599617935057033728,11
599617935064720512,14
599617935072407168,14
599617935080093952,14
599617935087780608,14
599617935095467264,16
599617935103154048,16
599617935110840704,16
599617935118527360,16
599617935126214144,16
599617935133900800,18
599617935141587584,18
599617935149274240,18
599617935156960896,18
599617935164647680,21
599617935172334336,21
599617935180020992,18
599617935187707776,21
599617935195394432,21
599617935203081216,23
599617935210767893,21
599617935218454272,23
599617935226140672,23
599617935233827072,23
599617935241513600,23
599617935249200000,23
599617935256886400,18
599617935264572800,21
599617935272259200,21
599617935279945728,21
599617935287632128,21
599617935295318528,23
599617935303004928,23
599617935310691328,21
599617935318377856,21
599617935326064256,21
599617935333750656,21
599617935341437056,23
599617935349123456,23
599617935356809984,25
599617935364496384,23
599617935372182784,23
599617935379869184,25
599617935387555584,25
599617935395242112,25
599617935402928512,25
599617935410614912,28
599617935418301312,28
599617935425987712,28
599617935433674112,28
599617935441360640,28
599617935449047040,28
599617935456733440,28
599617935464419840,30
599617935472106240,30
599617935479792768,30
599617935487479168,30
599617935495165568,28
599617935502851968,30
599617935510538368,30
599617935518224896,25
599617935525911296,21
599617935533597696,28
599617935541284096,49
599617935548970496,63
599617935556657024,58
599617935564343424,53
599617935572029824,53
599617935579716224,39
599617935587402624,21
599617935595089152,21
599617935602775552,30
599617935610461952,28
599617935618148352,25
599617935625834752,30
599617935633521280,30
599617935641207680,28
599617935648894080,2
599617935656580480,-88
599617935664266880,-177
599617935671953408,-37
599617935679639808,395
599617935687326208,821
599617935695012608,772
599617935702699008,208
599617935710385536,-224
599617935718071936,-166
599617935725758336,-42
599617935733444736,-39
599617935741131136,0
599617935748817664,14
599617935756504064,-18
599617935764190464,-11
599617935771876928,11
599617935779563392,4
599617935787249920,2
599617935794936576,11
599617935802623104,14
599617935810309632,14
599617935817996160,21
599617935825682816,23
599617935833369344,28
599617935841055872,30
599617935848742528,32
599617935856429056,37
599617935864115584,42
599617935871802112,49
599617935879488768,53
599617935887175296,58
599617935894861824,67
599617935902548480,74
599617935910235008,81
599617935917921536,88
599617935925608064,98
599617935933294720,102
599617935940981248,107
599617935948667776,109
599617935956354432,109
599617935964040960,105
599617935971727488,95
599617935979414016,81
599617935987100672,58
599617935994787200,32
599617936002473728,11
599617936010160384,-4
599617936017846912,-14
599617936025533440,-21
599617936033219968,-23
599617936040906624,-23
599617936048593152,-23
599617936056279680,-21
599617936063966336,-18
599617936071652864,-14
599617936079339392,-11
599617936087025920,-9
599617936094712576,-7
599617936102399104,-4
599617936110085632,-4
599617936117772288,-2
599617936125458816,0
599617936133145344,2
599617936140831872,4
599617936148518528,7
599617936156205056,7
599617936163891584,9
599617936171578240,9
599617936179264768,11
599617936186951296,14
599617936194637824,14
599617936202324480,14
599617936210011008,16
599617936217697536,18
599617936225384192,18
599617936233070720,16
599617936240757248,18
599617936248443776,18
599617936256130432,21
599617936263816960,18
599617936271503488,18
599617936279190144,18
599617936286876672,18
599617936294563200,18
599617936302249728,18
599617936309936384,18
599617936317622912,21
599617936325309440,21
599617936332996133,21
599617936340682752,21
599617936348369408,21
599617936356056192,21
599617936363742848,21
599617936371429504,23
599617936379116288,23
599617936386802944,21
599617936394489728,18
599617936402176384,21
599617936409863040,21
599617936417549824,21
599617936425236480,21
599617936432923136,23
599617936440609920,23
599617936448296576,23
599617936455983360,25
599617936463670016,25
599617936471356672,25
599617936479043456,28
599617936486730112,28
599617936494416768,25
599617936502103552,28
599617936509790208,28
599617936517476992,28
599617936525163648,28
599617936532850304,28
599617936540537088,28
599617936548223744,28
599617936555910400,30
599617936563597184,28
599617936571283840,28
599617936578970624,30
599617936586657280,30
599617936594343936,30
599617936602030720,30
599617936609717376,32
599617936617404032,30
599617936625090816,30
599617936632777472,30
599617936640464256,30
599617936648150912,21
599617936655837568,21
599617936663524352,42
599617936671211008,65
599617936678897664,65
599617936686584448,56
599617936694271104,51
599617936701957888,46
599617936709644544,28
599617936717331200,18
599617936725017984,25
599617936732704640,30
599617936740391296,25
599617936748078080,28
599617936755764736,30
599617936763451520,28
599617936771138176,23
599617936778824832,-14
599617936786511616,-116
599617936794198272,-170
599617936801884928,44
599617936809571712,510
599617936817258368,851
599617936824945152,650
599617936832631808,46
599617936840318464,-257
599617936848005248,-128
599617936855691904,-39
599617936863378560,-30
599617936871065344,16
599617936878752000,14
599617936886438784,-14
599617936894125512,2
599617936901812224,18
599617936909498880,11
599617936917185536,14
599617936924872064,21
599617936932558720,21
599617936940245376,23
599617936947932032,30
599617936955618688,30
599617936963305344,32
599617936970991872,39
599617936978678528,42
599617936986365184,46
599617936994051840,53
599617937001738496,58
599617937009425152,63
599617937017111680,70
599617937024798336,77
599617937032484992,86
599617937040171648,95
599617937047858304,100
599617937055544960,107
599617937063231488,116
599617937070918144,121
599617937078604800,121
599617937086291456,119
599617937093978112,112
599617937101664768,100
599617937109351296,79
599617937117037952,53
599617937124724608,28
599617937132411264,7
599617937140097920,-9
599617937147784576,-18
599617937155471104,-21
599617937163157760,-25
599617937170844416,-28
599617937178531072,-23
599617937186217728,-21
599617937193904384,-18
599617937201590912,-16
599617937209277568,-14
599617937216964224,-11
599617937224650880,-9
599617937232337536,-7
599617937240024192,-4
599617937247710720,-2
599617937255397376,0
599617937263084032,0
599617937270770688,2
599617937278457344,4
599617937286143872,4
599617937293830528,7
599617937301517184,9
599617937309203840,9
599617937316890496,9
599617937324577152,11
599617937332263680,14
599617937339950336,14
599617937347636992,14
599617937355323648,14
599617937363010304,14
599617937370696960,14
599617937378383488,14
599617937386070144,14
599617937393756800,14
599617937401443456,16
599617937409130112,18
599617937416816768,16
599617937424503296,16
599617937432189952,18
599617937439876608,18
599617937447563264,18
599617937455249808,18
599617937462936192,18
599617937470622592,21
599617937478308864,21
599617937485995264,21
599617937493681664,21
599617937501367936,18
599617937509054336,21
599617937516740736,21
599617937524427008,18
599617937532113408,21
599617937539799808,21
599617937547486080,21
599617937555172480,23
599617937562858752,23
599617937570545152,23
599617937578231552,25
599617937585917824,25
599617937593604224,23
599617937601290624,25
599617937608976896,25
599617937616663296,25
599617937624349696,25
599617937632035968,25
599617937639722368,28
599617937647408768,25
599617937655095040,25
599617937662781440,30
599617937670467840,28
599617937678154112,25
599617937685840512,28
599617937693526912,28
599617937701213184,21
599617937708899584,30
599617937716585984,53
599617937724272256,63
599617937731958656,56
599617937739644928,51
599617937747331328,44
599617937755017728,25
599617937762704000,14
599617937770390400,25
599617937778076800,30
599617937785763072,23
599617937793449472,23
599617937801135872,25
599617937808822144,25
599617937816508544,21
599617937824194944,-16
599617937831881216,-121
599617937839567616,-173
599617937847254016,56
599617937854940288,514
599617937862626688,809
599617937870313088,556
599617937877999360,-39
599617937885685760,-287
599617937893372032,-135
599617937901058432,-53
599617937908744832,-30
599617937916431104,39
599617937924117504,32
599617937931803904,-4
599617937939490176,16
599617937947176576,32
599617937954862976,18
599617937962549248,23
599617937970235648,35
599617937977922048,32
599617937985608320,35
599617937993294720,42
599617938000981120,44
599617938008667392,46
599617938016353752,53
599617938024040448,58
599617938031727104,60
599617938039413888,65
599617938047100544,72
599617938054787200,77
599617938062473984,81
599617938070160640,86
599617938077847424,95
599617938085534080,105
599617938093220736,112
599617938100907520,119
599617938108594176,126
599617938116280832,126
599617938123967616,124
599617938131654272,124
599617938139341056,114
599617938147027712,100
599617938154714368,74
599617938162401152,44
599617938170087808,18
599617938177774464,0
599617938185461248,-14
599617938193147904,-23
599617938200834688,-30
599617938208521344,-30
599617938216208000,-28
599617938223894784,-25
599617938231581440,-23
599617938239268096,-21
599617938246954880,-18
599617938254641536,-16
599617938262328320,-14
599617938270014976,-11
599617938277701632,-11
599617938285388416,-9
599617938293075072,-9
599617938300761728,-4
599617938308448512,0
599617938316135168,0
599617938323821952,2
599617938331508608,4
599617938339195264,4
599617938346882048,7
599617938354568704,9
599617938362255360,9
599617938369942144,9
599617938377628800,9
599617938385315584,11
599617938393002240,11
599617938400688896,11
599617938408375680,14
599617938416062336,16
599617938423748992,14
599617938431435776,14
599617938439122432,16
599617938446809216,16
599617938454495872,14
599617938462182528,16
599617938469869312,18
599617938477555968,16
599617938485242624,16
599617938492929408,21
599617938500616064,21
599617938508302848,18
599617938515989504,21
599617938523676160,23
599617938531362944,23
599617938539049600,21
599617938546736256,23
599617938554423040,25
599617938562109696,25
599617938569796480,25
599617938577483135,28
599617938585169536,25
599617938592855936,28
599617938600542336,28
599617938608228864,25
599617938615915264,28
599617938623601664,28
599617938631288064,28
599617938638974464,28
599617938646660992,28
599617938654347392,28
599617938662033792,28
599617938669720192,23
599617938677406592,23
599617938685093120,25
599617938692779520,25
599617938700465920,28
599617938708152320,30
599617938715838720,28
599617938723525248,23
599617938731211648,37
599617938738898048,58
599617938746584448,58
599617938754270848,49
599617938761957376,49
599617938769643776,35
599617938777330176,16
599617938785016576,16
599617938792702976,23
599617938800389376,21
599617938808075904,21
599617938815762304,23
599617938823448704,23
599617938831135104,23
599617938838821504,16
599617938846508032,-49
599617938854194432,-156
599617938861880832,-131
599617938869567232,198
599617938877253632,659
599617938884940160,811
599617938892626560,402
599617938900312960,-145
599617938907999360,-236
599617938915685760,-77
599617938923372288,-44
599617938931058688,-16
599617938938745088,32
599617938946431488,4
599617938954117888,-9
599617938961804416,16
599617938969490816,16
599617938977177216,9
599617938984863616,18
599617938992550016,25
599617939000236544,21
599617939007922944,25
599617939015609344,32
599617939023295744,35
599617939030982144,37
599617939038668672,44
599617939046355072,46
599617939054041472,51
599617939061727872,56
599617939069414272,60
599617939077100800,67
599617939084787200,72
599617939092473600,81
599617939100160000,88
599617939107846400,95
599617939115532928,102
599617939123219328,112
599617939130905728,119
599617939138592170,119
599617939146278656,119
599617939153965184,114
599617939161651840,107
599617939169338368,88
599617939177024896,63
599617939184711424,35
599617939192398080,11
599617939200084608,-7
599617939207771136,-18
599617939215457792,-25
599617939223144320,-28
599617939230830848,-28
599617939238517376,-28
599617939246204032,-25
599617939253890560,-21
599617939261577088,-18
599617939269263744,-16
599617939276950272,-14
599617939284636800,-11
599617939292323328,-11
599617939300009984,-11
599617939307696512,-9
599617939315383040,-4
599617939323069696,-2
599617939330756224,-2
599617939338442752,0
599617939346129280,2
599617939353815936,2
599617939361502464,4
599617939369188992,7
599617939376875648,9
599617939384562176,9
599617939392248704,9
599617939399935232,14
599617939407621888,14
599617939415308416,11
599617939422994944,14
599617939430681600,14
599617939438368128,14
599617939446054656,14
599617939453741184,14
599617939461427840,16
599617939469114368,16
599617939476800896,14
599617939484487552,16
599617939492174080,18
599617939499860608,18
599617939507547136,18
599617939515233792,18
599617939522920320,18
599617939530606848,21
599617939538293504,21
599617939545980032,21
599617939553666560,23
599617939561353088,21
599617939569039744,21
599617939576726272,23
599617939584412800,23
599617939592099456,21
599617939599785984,23
599617939607472512,23
599617939615159040,23
599617939622845696,25
599617939630532224,25
599617939638218752,25
599617939645905408,25
599617939653591936,23
599617939661278464,23
599617939668964992,25
599617939676651648,25
599617939684338176,23
599617939692024704,25
599617939699711375,25
599617939707398016,25
599617939715084672,28
599617939722771456,25
599617939730458112,25
599617939738144768,28
599617939745831552,28
599617939753518208,28
599617939761204992,30
599617939768891648,28
599617939776578304,25
599617939784265088,25
599617939791951744,25
599617939799638400,23
599617939807325184,23
599617939815011840,25
599617939822698624,25
599617939830385280,21
599617939838071936,25
599617939845758720,46
599617939853445376,60
599617939861132032,51
599617939868818816,46
599617939876505472,46
599617939884192256,25
599617939891878912,11
599617939899565568,16
599617939907252352,23
599617939914939008,21
599617939922625664,21
599617939930312448,23
599617939937999104,23
599617939945685888,23
599617939953372544,-7
599617939961059200,-102
599617939968745984,-180
599617939976432640,-16
599617939984119296,430
599617939991806080,830
599617939999492736,732
599617940007179520,152
599617940014866176,-231
599617940022552832,-147
599617940030239616,-42
599617940037926272,-42
599617940045612928,0
599617940053299712,7
599617940060986368,-21
599617940068673152,-11
599617940076359808,7
599617940084046464,0
599617940091733248,2
599617940099419904,11
599617940107106560,11
599617940114793344,14
599617940122480000,21
599617940130166784,23
599617940137853440,28
599617940145540096,32
599617940153226880,35
599617940160913536,37
599617940168600192,42
599617940176286976,49
599617940183973632,53
599617940191660416,60
599617940199347072,67
599617940207033728,74
599617940214720512,81
599617940222407168,91
599617940230093824,98
599617940237780608,105
599617940245467264,109
599617940253154048,112
599617940260840754,109
599617940268527360,107
599617940276214016,98
599617940283900672,81
599617940291587200,58
599617940299273856,30
599617940306960512,4
599617940314647168,-11
599617940322333824,-21
599617940330020480,-25
599617940337707008,-28
599617940345393664,-30
599617940353080320,-30
599617940360766976,-25
599617940368453632,-23
599617940376140288,-18
599617940383826816,-16
599617940391513472,-14
599617940399200128,-11
599617940406886784,-11
599617940414573440,-9
599617940422260096,-7
599617940429946624,-7
599617940437633280,-4
599617940445319936,-2
599617940453006592,0
599617940460693248,2
599617940468379904,2
599617940476066432,4
599617940483753088,7
599617940491439744,7
599617940499126400,7
599617940506813056,9
599617940514499712,11
599617940522186240,9
599617940529872896,11
599617940537559552,14
599617940545246208,14
599617940552932864,14
599617940560619520,14
599617940568306048,16
599617940575992704,14
599617940583679360,14
599617940591366016,14
599617940599052672,16
599617940606739328,16
599617940614425856,18
599617940622112512,18
599617940629799168,18
599617940637485824,18
599617940645172480,18
599617940652859008,21
599617940660545664,21
599617940668232320,21
599617940675918976,18
599617940683605632,21
599617940691292288,23
599617940698978816,23
599617940706665472,23
599617940714352128,21
599617940722038784,23
599617940729725440,21
599617940737412096,21
599617940745098624,25
599617940752785280,25
599617940760471936,25
599617940768158592,23
599617940775845248,25
599617940783531904,25
599617940791218432,28
599617940798905088,25
599617940806591744,23
599617940814278400,23
599617940821965050,25
599617940829651456,28
599617940837337856,25
599617940845024128,25
599617940852710528,28
599617940860396928,28
599617940868083200,25
599617940875769600,28
599617940883456000,25
599617940891142272,25
599617940898828672,25
599617940906515072,28
599617940914201344,30
599617940921887744,28
599617940929574016,25
599617940937260416,44
599617940944946816,65
599617940952633088,60
599617940960319488,51
599617940968005888,51
599617940975692160,37
599617940983378560,16
599617940991064960,18
599617940998751232,30
599617941006437632,28
599617941014124032,25
599617941021810304,30
599617941029496704,30
599617941037183104,28
599617941044869376,11
599617941052555776,-67
599617941060242176,-173
599617941067928448,-77
599617941075614848,325
599617941083301248,772
599617941090987520,800
599617941098673920,273
599617941106360192,-217
599617941114046592,-196
599617941121732992,-51
599617941129419264,-44
599617941137105664,2
599617941144792064,32
599617941152478336,-4
599617941160164736,-4
599617941167851136,23
599617941175537408,18
599617941183223808,11
599617941190910208,23
599617941198596480,25
599617941206282880,28
599617941213969280,32
599617941221655552,35
599617941229341952,39
599617941237028352,46
599617941244714624,49
599617941252401024,51
599617941260087296,58
599617941267773696,63
599617941275460096,67
599617941283146368,74
599617941290832768,84
599617941298519168,91
599617941306205440,98
599617941313891840,102
599617941321578240,109
599617941329264512,116
599617941336950912,124
599617941344637312,124
599617941352323584,124
599617941360009984,119
599617941367696384,109
599617941375382656,91
599617941383068994,65
599617941390755712,37
599617941398442368,11
599617941406129152,-4
599617941413815808,-16
599617941421502464,-23
599617941429189248,-30
599617941436875904,-28
599617941444562688,-25
599617941452249344,-25
599617941459936000,-23
599617941467622784,-18
599617941475309440,-16
599617941482996096,-16
599617941490682880,-11
599617941498369536,-7
599617941506056320,-9
599617941513742976,-7
599617941521429632,-2
599617941529116416,0
599617941536803072,0
599617941544489728,2
599617941552176512,4
599617941559863168,7
599617941567549952,9
599617941575236608,11
599617941582923264,11
599617941590610048,11
599617941598296704,14
599617941605983360,11
599617941613670144,11
599617941621356800,16
599617941629043584,16
599617941636730240,16
599617941644416896,16
599617941652103680,18
599617941659790336,18
599617941667476992,18
599617941675163776,18
599617941682850432,18
599617941690537216,16
599617941698223872,16
599617941705910528,21
599617941713597312,21
599617941721283968,18
599617941728970624,18
599617941736657408,18
599617941744344064,21
599617941752030848,23
599617941759717504,23
599617941767404160,23
599617941775090944,23
599617941782777600,23
599617941790464256,25
599617941798151040,23
599617941805837696,23
599617941813524480,23
599617941821211136,21
599617941828897792,21
599617941836584576,25
599617941844271232,23
599617941851957888,21
599617941859644672,23
599617941867331328,25
599617941875018112,25
599617941882704768,25
599617941890391424,25
599617941898078208,23
599617941905764864,23
599617941913451520,25
599617941921138304,25
599617941928824960,25
599617941936511744,25
599617941944198377,30
599617941951885056,28
599617941959571712,23
599617941967258496,37
599617941974945152,58
599617941982631808,60
599617941990318592,49
599617941998005248,46
599617942005692032,35
599617942013378688,14
599617942021065344,16
599617942028752128,25
599617942036438784,23
599617942044125440,21
599617942051812224,23
599617942059498880,23
599617942067185664,23
599617942074872320,7
599617942082558976,-72
599617942090245760,-175
599617942097932416,-81
599617942105619072,311
599617942113305856,732
599617942120992512,732
599617942128679296,208
599617942136365952,-248
599617942144052608,-210
599617942151739392,-67
599617942159426048,-51
599617942167112704,9
599617942174799488,46
599617942182486144,0
599617942190172928,0
599617942197859584,28
599617942205546240,21
599617942213233024,16
599617942220919680,28
599617942228606336,32
599617942236293120,32
599617942243979776,35
599617942251666560,39
599617942259353216,44
599617942267039872,49
599617942274726656,51
599617942282413312,56
599617942290099968,63
599617942297786752,70
599617942305473408,74
599617942313160192,81
599617942320846848,88
599617942328533504,93
599617942336220288,100
599617942343906944,109
599617942351593600,116
599617942359280384,119
599617942366967040,126
599617942374653824,128
599617942382340480,124
599617942390027136,116
599617942397713920,105
599617942405400576,86
599617942413087232,58
599617942420774016,28
599617942428460672,4
599617942436147456,-9
599617942443834112,-21
599617942451520768,-28
599617942459207552,-30
599617942466894208,-30
599617942474580864,-30
599617942482267648,-28
599617942489954304,-23
599617942497641088,-21
599617942505327756,-18
599617942513014272,-16
599617942520700800,-14
599617942528387200,-11
599617942536073728,-9
599617942543760256,-7
599617942551446784,-4
599617942559133184,-2
599617942566819712,-2
599617942574506240,-2
599617942582192768,0
599617942589879168,2
599617942597565696,4
599617942605252224,4
599617942612938752,7
599617942620625152,9
599617942628311680,7
599617942635998208,7
599617942643684736,11
599617942651371136,11
599617942659057664,9
599617942666744192,9
599617942674430720,11
599617942682117120,11
599617942689803648,11
599617942697490176,11
599617942705176704,14
599617942712863104,14
599617942720549632,14
599617942728236160,16
599617942735922560,18
599617942743609088,16
599617942751295616,14
599617942758982144,16
599617942766668544,18
599617942774355072,18
599617942782041600,18
599617942789728128,18
599617942797414528,18
599617942805101056,18
599617942812787584,21
599617942820474112,21
599617942828160512,18
599617942835847040,16
599617942843533568,16
599617942851220096,18
599617942858906496,21
599617942866593024,21
599617942874279552,18
599617942881966080,21
599617942889652480,23
599617942897339008,21
599617942905025536,21
599617942912712064,21
599617942920398464,23
599617942928084992,23
599617942935771520,23
599617942943457920,23
599617942951144448,21
599617942958830976,23
599617942966517504,25
599617942974203904,21
599617942981890432,18
599617942989576960,32
599617942997263488,53
599617943004949888,56
599617943012636416,46
599617943020322944,44
599617943028009472,32
599617943035695872,14
599617943043382400,11
599617943051068928,23
599617943058755456,23
599617943066441878,18
599617943074128384,21
599617943081814912,23
599617943089501312,23
599617943097187840,9
599617943104874368,-65
599617943112560896,-173
599617943120247296,-98
599617943127933824,280
599617943135620352,725
599617943143306880,786
599617943150993280,299
599617943158679808,-201
599617943166366336,-212
599617943174052864,-63
599617943181739264,-49
599617943189425792,-9
599617943197112320,28
599617943204798848,-7
599617943212485248,-11
599617943220171776,14
599617943227858304,9
599617943235544832,4
599617943243231232,16
599617943250917760,18
599617943258604288,18
599617943266290816,23
599617943273977216,30
599617943281663744,32
599617943289350272,35
599617943297036672,42
599617943304723200,46
599617943312409728,49
599617943320096256,53
599617943327782656,60
599617943335469184,65
599617943343155712,70
599617943350842240,77
599617943358528640,86
599617943366215168,93
599617943373901696,100
599617943381588224,107
599617943389274624,114
599617943396961152,114
599617943404647680,112
599617943412334208,107
599617943420020608,100
599617943427707136,84
599617943435393664,58
599617943443080192,30
599617943450766592,7
599617943458453120,-9
599617943466139648,-21
599617943473826048,-25
599617943481512576,-30
599617943489199104,-30
599617943496885632,-28
599617943504572032,-23
599617943512258560,-21
599617943519945088,-18
599617943527631616,-18
599617943535318016,-16
599617943543004544,-16
599617943550691072,-14
599617943558377600,-14
599617943566064000,-11
599617943573750528,-7
599617943581437056,-4
599617943589123584,-4
599617943596809984,-2
599617943604496512,0
599617943612183040,2
599617943619869568,4
599617943627555996,4
599617943635242624,7
599617943642929280,9
599617943650616064,7
599617943658302720,9
599617943665989376,9
599617943673676160,9
599617943681362816,9
599617943689049600,9
599617943696736256,11
599617943704422912,11
599617943712109696,11
599617943719796352,11
599617943727483008,11
599617943735169792,11
599617943742856448,11
599617943750543232,14
599617943758229888,16
599617943765916544,14
599617943773603328,14
599617943781289984,14
599617943788976640,16
599617943796663424,16
599617943804350080,16
599617943812036864,16
599617943819723520,16
599617943827410176,18
599617943835096960,16
599617943842783616,16
599617943850470272,16
599617943858157056,16
599617943865843712,16
599617943873530496,18
599617943881217152,18
599617943888903808,18
599617943896590592,18
599617943904277248,18
599617943911963904,18
599617943919650688,21
599617943927337344,21
599617943935024128,21
599617943942710784,21
599617943950397440,21
599617943958084224,21
599617943965770880,21
599617943973457536,23
599617943981144320,23
599617943988830976,23
599617943996517760,25
599617944004204416,25
599617944011891072,25
599617944019577856,28
599617944027264512,25
599617944034951168,25
599617944042637952,28
599617944050324608,28
599617944058011392,25
599617944065698048,25
599617944073384704,28
599617944081071488,28
599617944088758144,23
599617944096444800,25
599617944104131584,46
599617944111818240,60
599617944119505024,56
599617944127191680,46
599617944134878336,46
599617944142565120,32
599617944150251776,14
599617944157938432,14
599617944165625216,25
599617944173311872,23
599617944180998656,23
599617944188685375,25
599617944196371968,25
599617944204058624,25
599617944211745408,7
599617944219432064,-74
599617944227118720,-177
599617944234805504,-84
599617944242492160,318
599617944250178944,776
599617944257865600,821
599617944265552256,301
599617944273239040,-194
599617944280925696,-184
599617944288612352,-49
599617944296299136,-44
599617944303985792,-11
599617944311672576,14
599617944319359232,-18
599617944327045888,-16
599617944334732672,4
599617944342419328,-2
599617944350105984,0
599617944357792768,9
599617944365479424,9
599617944373166208,9
599617944380852864,16
599617944388539520,21
599617944396226304,23
599617944403912960,25
599617944411599616,32
599617944419286400,35
599617944426973056,37
599617944434659840,44
599617944442346496,53
599617944450033152,58
599617944457719936,63
599617944465406592,70
599617944473093248,79
599617944480780032,86
599617944488466688,93
599617944496153472,100
599617944503840128,105
599617944511526784,107
599617944519213568,109
599617944526900224,105
599617944534586880,100
599617944542273664,86
599617944549960320,63
599617944557647104,37
599617944565333760,16
599617944573020416,0
599617944580707200,-14
599617944588393856,-21
