599616068803222272,3802
599616068810914560,3729
599616068818606848,3637
599616068826299136,3538
599616068833991552,3441
599616068841683840,3356
599616068849376128,3283
599616068857068416,3220
599616068864760704,3164
599616068872452992,3116
599616068880145408,3075
599616068887837696,3038
599616068895529984,2999
599616068903222272,2961
599616068910914560,2924
599616068918606848,2890
599616068926299136,2849
599616068933991552,2810
599616068941683840,2769
599616068949376128,2723
599616068957068416,2677
599616068964760704,2633
599616068972452992,2580
599616068980145408,2529
599616068987837696,2483
599616068995529984,2432
599616069003222272,2379
599616069010914560,2323
599616069018606848,2269
599616069026299136,2216
599616069033991552,2163
599616069041683840,2109
599616069049376128,2058
599616069057068416,2008
599616069064760704,1944
599616069072452992,1879
599616069080145408,1840
599616069087837696,1809
599616069095529984,1763
599616069103222272,1700
599616069110914560,1622
599616069118606848,1564
599616069126299136,1518
599616069133991552,1459
599616069141683840,1404
599616069149376128,1353
599616069157068416,1302
599616069164760704,1256
599616069172452992,1205
599616069180145408,1151
599616069187837696,1122
599616069195529984,1142
599616069203222272,1067
599616069210914560,628
599616069218606848,7
599616069226299136,-174
599616069233991552,123
599616069241683840,392
599616069249376128,586
599616069257068416,790
599616069264760704,795
599616069272452992,696
599616069280145408,679
599616069287837696,662
599616069295529984,599
599616069303222272,557
599616069310914560,528
599616069318606848,487
599616069326299136,446
599616069333991552,412
599616069341683840,380
599616069349376128,349
599616069357068398,317
599616069364758144,291
599616069372447872,269
599616069380137600,244
599616069387827200,218
599616069395516928,189
599616069403206656,155
599616069410896384,116
599616069418585984,67
599616069426275712,14
599616069433965440,-46
599616069441655168,-116
599616069449344896,-196
599616069457034496,-288
599616069464724224,-380
599616069472413952,-458
599616069480103680,-523
599616069487793280,-584
599616069495483008,-630
599616069503172736,-664
599616069510862464,-696
599616069518552192,-722
599616069526241792,-742
599616069533931520,-763
599616069541621248,-778
599616069549310976,-793
599616069557000704,-812
599616069564690304,-829
599616069572380032,-843
599616069580069760,-860
599616069587759488,-875
599616069595449088,-890
599616069603138816,-909
599616069610828544,-931
599616069618518272,-948
599616069626208000,-967
599616069633897600,-987
599616069641587328,-1001
599616069649277056,-1018
599616069656966784,-1040
599616069664656384,-1054
599616069672346112,-1067
599616069680035840,-1081
599616069687725568,-1093
599616069695415296,-1103
599616069703104896,-1125
599616069710794624,-1144
599616069718484352,-1139
599616069726174080,-1130
599616069733863680,-1137
599616069741553408,-1173
599616069749243136,-1202
599616069756932864,-1205
599616069764622592,-1207
599616069772312192,-1214
599616069780001920,-1222
599616069787691648,-1229
599616069795381376,-1234
599616069803070976,-1239
599616069810760704,-1236
599616069818450432,-1229
599616069826140160,-1202
599616069833829888,-1178
599616069841519488,-1345
599616069849209216,-1847
599616069856898944,-2299
599616069864588672,-2206
599616069872278400,-1809
599616069879968000,-1518
599616069887657728,-1265
599616069895347456,-1093
599616069903037184,-1110
599616069910726784,-1137
599616069918416490,-1098
599616069926105856,-1098
599616069933795200,-1117
599616069941484416,-1103
599616069949173760,-1093
599616069956862976,-1096
599616069964552320,-1091
599616069972241536,-1086
599616069979930880,-1084
599616069987620096,-1071
599616069995309440,-1054
599616070002998656,-1042
599616070010688000,-1030
599616070018377216,-1013
599616070026066560,-1001
599616070033755776,-994
599616070041445120,-991
599616070049134336,-999
599616070056823680,-1013
599616070064512896,-1037
599616070072202240,-1069
599616070079891456,-1113
599616070087580800,-1166
599616070095270016,-1224
599616070102959360,-1280
599616070110648576,-1326
599616070118337920,-1358
599616070126027136,-1372
599616070133716480,-1382
599616070141405696,-1387
599616070149095040,-1384
599616070156784256,-1384
599616070164473600,-1375
599616070172162816,-1362
599616070179852160,-1355
599616070187541376,-1345
599616070195230720,-1336
599616070202920064,-1331
599616070210609280,-1324
599616070218298624,-1311
599616070225987840,-1304
599616070233677184,-1302
599616070241366400,-1299
599616070249055744,-1302
599616070256744960,-1299
599616070264434304,-1290
599616070272123520,-1287
599616070279812864,-1287
599616070287502080,-1285
599616070295191424,-1282
599616070302880640,-1280
599616070310569984,-1275
599616070318259200,-1270
599616070325948544,-1270
599616070333637760,-1270
599616070341327104,-1265
599616070349016320,-1261
599616070356705664,-1261
599616070364394880,-1248
599616070372084224,-1227
599616070379773440,-1207
599616070387462784,-1210
599616070395152000,-1231
599616070402841344,-1236
599616070410530560,-1227
599616070418219904,-1222
599616070425909120,-1219
599616070433598464,-1212
599616070441287680,-1205
599616070448977024,-1198
599616070456666240,-1190
599616070464355584,-1178
599616070472044928,-1171
599616070479734064,-1134
599616070487423360,-1147
599616070495112704,-1455
599616070502801920,-2020
599616070510491264,-2257
599616070518180480,-1915
599616070525869824,-1464
599616070533559040,-1171
599616070541248384,-979
599616070548937600,-936
599616070556626944,-960
599616070564316160,-938
599616070572005504,-919
599616070579694720,-919
599616070587384064,-911
599616070595073280,-897
599616070602762624,-892
599616070610451840,-885
599616070618141184,-873
599616070625830400,-858
599616070633519744,-846
599616070641208960,-829
599616070648898304,-814
599616070656587520,-797
599616070664276864,-780
599616070671966080,-763
599616070679655424,-744
599616070687344640,-734
599616070695033984,-734
599616070702723200,-737
599616070710412544,-749
599616070718101760,-768
599616070725791104,-797
599616070733480320,-843
599616070741169664,-902
599616070748858880,-970
599616070756548224,-1025
599616070764237568,-1059
599616070771926784,-1076
599616070779616128,-1093
599616070787305344,-1103
599616070794994688,-1101
599616070802683904,-1093
599616070810373248,-1086
599616070818062464,-1074
599616070825751808,-1062
599616070833441024,-1052
599616070841130368,-1042
599616070848819584,-1030
599616070856508928,-1023
599616070864198144,-1016
599616070871887488,-1006
599616070879576704,-999
599616070887266048,-994
599616070894955264,-989
599616070902644608,-982
599616070910333824,-977
599616070918023168,-974
599616070925712384,-974
599616070933401728,-967
599616070941090944,-965
599616070948780288,-965
599616070956469504,-957
599616070964158848,-955
599616070971848064,-953
599616070979537408,-948
599616070987226624,-948
599616070994915968,-948
599616071002605184,-940
599616071010294528,-938
599616071017983744,-940
599616071025673088,-923
599616071033362432,-899
599616071041051638,-882
599616071048740992,-890
599616071056430336,-911
599616071064119552,-914
599616071071808896,-904
599616071079498112,-902
599616071087187456,-899
599616071094876672,-892
599616071102566016,-890
599616071110255232,-887
599616071117944576,-875
599616071125633792,-870
599616071133323136,-858
599616071141012352,-797
599616071148701696,-829
599616071156390912,-1231
599616071164080256,-1806
599616071171769472,-1923
599616071179458816,-1513
599616071187148032,-1108
599616071194837376,-839
599616071202526592,-649
599616071210215936,-625
599616071217905152,-649
599616071225594496,-615
599616071233283712,-599
599616071240973056,-611
599616071248662272,-601
599616071256351616,-586
599616071264040832,-589
599616071271730176,-582
599616071279419392,-567
599616071287108736,-557
599616071294797952,-545
599616071302487296,-523
599616071310176512,-511
599616071317865856,-499
599616071325555200,-477
599616071333244416,-460
599616071340933760,-448
599616071348622976,-441
599616071356312320,-441
599616071364001536,-446
599616071371690880,-460
599616071379380096,-485
599616071387069440,-518
599616071394758656,-565
599616071402448000,-625
599616071410137216,-693
599616071417826560,-746
599616071425515776,-783
599616071433205120,-807
599616071440894336,-829
599616071448583680,-839
599616071456272896,-836
599616071463962240,-831
599616071471651456,-826
599616071479340800,-814
599616071487030016,-800
599616071494719360,-793
599616071502408576,-785
599616071510097920,-776
599616071517787136,-763
599616071525476480,-759
599616071533165696,-756
599616071540855040,-751
599616071548544256,-746
599616071556233600,-742
599616071563922816,-739
599616071571612160,-737
599616071579301376,-734
599616071586990720,-732
599616071594680064,-737
599616071602369212,-732
599616071610058496,-729
599616071617747840,-727
599616071625437056,-727
599616071633126400,-725
599616071640815616,-722
599616071648504960,-717
599616071656194176,-708
599616071663883520,-703
599616071671572736,-700
599616071679262080,-700
599616071686951296,-710
599616071694640640,-717
599616071702329856,-700
599616071710019200,-671
599616071717708416,-659
599616071725397760,-674
599616071733086976,-693
599616071740776320,-691
599616071748465536,-683
599616071756154880,-683
599616071763844096,-681
599616071771533440,-679
599616071779222656,-676
599616071786912000,-669
599616071794601216,-654
599616071802290560,-632
599616071809979776,-596
599616071817669120,-555
599616071825358336,-705
599616071833047680,-1219
599616071840736896,-1683
599616071848426240,-1573
599616071856115456,-1173
599616071863804800,-909
599616071871494016,-649
599616071879183360,-426
599616071886872704,-426
599616071894561920,-463
599616071902251264,-421
599616071909940480,-412
599616071917629824,-426
599616071925319040,-412
599616071933008384,-402
599616071940697600,-400
599616071948386944,-392
599616071956076160,-383
599616071963765504,-373
599616071971454720,-361
599616071979144064,-346
599616071986833280,-332
599616071994522624,-315
599616072002211840,-298
599616072009901184,-283
599616072017590400,-271
599616072025279744,-266
599616072032968960,-274
599616072040658304,-286
599616072048347520,-305
599616072056036864,-334
599616072063726080,-373
599616072071415424,-426
599616072079104640,-487
599616072086793984,-545
599616072094483200,-589
599616072102172544,-618
599616072109861760,-645
599616072117551104,-664
599616072125240320,-666
599616072132929664,-666
599616072140618880,-664
599616072148308224,-654
599616072155997568,-642
599616072163686786,-630
599616072171376128,-620
599616072179065472,-618
599616072186754688,-611
599616072194444032,-603
599616072202133248,-594
599616072209822592,-589
599616072217511808,-586
599616072225201152,-591
599616072232890368,-596
599616072240579712,-594
599616072248268928,-589
599616072255958272,-586
599616072263647488,-589
599616072271336832,-596
599616072279026048,-594
599616072286715392,-589
599616072294404608,-594
599616072302093952,-594
599616072309783168,-589
599616072317472512,-584
599616072325161728,-586
599616072332851072,-582
599616072340540288,-569
599616072348229632,-579
599616072355918848,-584
599616072363608192,-569
599616072371297408,-552
599616072378986752,-545
599616072386675968,-557
599616072394365312,-577
599616072402054528,-572
599616072409743872,-562
599616072417433088,-562
599616072425122432,-555
599616072432811648,-548
599616072440500992,-545
599616072448190336,-543
599616072455879552,-531
599616072463568896,-514
599616072471258112,-494
599616072478947456,-475
599616072486636672,-625
599616072494326016,-1103
599616072502015232,-1549
599616072509704576,-1467
599616072517393792,-1079
599616072525083136,-793
599616072532772352,-528
599616072540461696,-322
599616072548150912,-332
599616072555840256,-363
599616072563529472,-320
599616072571218816,-312
599616072578908032,-329
599616072586597376,-317
599616072594286592,-310
599616072601975936,-310
599616072609665152,-300
599616072617354496,-291
599616072625043712,-283
599616072632733056,-271
599616072640422272,-257
599616072648111616,-242
599616072655800832,-230
599616072663490176,-215
599616072671179392,-201
599616072678868736,-194
599616072686557952,-191
599616072694247296,-194
599616072701936512,-206
599616072709625856,-230
599616072717315200,-259
599616072725004360,-303
599616072732693760,-363
599616072740383104,-426
599616072748072320,-485
599616072755761664,-531
599616072763450880,-560
599616072771140224,-584
599616072778829440,-603
599616072786518784,-611
599616072794208000,-608
599616072801897344,-601
599616072809586560,-596
599616072817275904,-594
599616072824965120,-586
599616072832654464,-574
599616072840343680,-567
599616072848033024,-560
599616072855722240,-552
599616072863411584,-543
599616072871100800,-533
599616072878790144,-528
599616072886479360,-528
599616072894168704,-526
599616072901857920,-526
599616072909547264,-528
599616072917236480,-523
599616072924925824,-521
599616072932615040,-526
599616072940304384,-526
599616072947993600,-523
599616072955682944,-526
599616072963372160,-526
599616072971061504,-521
599616072978750720,-518
599616072986440064,-518
599616072994129280,-518
599616073001818624,-518
599616073009507968,-518
599616073017197184,-516
599616073024886528,-516
599616073032575744,-518
599616073040265088,-511
599616073047954304,-494
599616073055643648,-475
599616073063332864,-475
599616073071022208,-497
599616073078711424,-511
599616073086400768,-506
599616073094089984,-502
599616073101779328,-502
599616073109468544,-497
599616073117157888,-494
599616073124847104,-489
599616073132536448,-485
599616073140225664,-477
599616073147915008,-472
599616073155604224,-451
599616073163293568,-458
599616073170982784,-717
599616073178672128,-1263
599616073186361344,-1581
599616073194050688,-1311
599616073201739904,-848
599616073209429248,-533
599616073217118464,-329
599616073224807808,-261
599616073232497024,-283
599616073240186368,-269
599616073247875584,-244
599616073255564928,-254
599616073263254144,-257
599616073270943488,-242
599616073278632832,-240
599616073286321934,-240
599616073294011264,-232
599616073301700608,-223
599616073309389824,-215
599616073317079168,-203
599616073324768384,-191
599616073332457728,-179
599616073340146944,-167
599616073347836288,-152
599616073355525504,-143
599616073363214848,-135
599616073370904064,-130
599616073378593408,-135
599616073386282624,-152
599616073393971968,-174
599616073401661184,-208
599616073409350528,-254
599616073417039744,-317
599616073424729088,-383
599616073432418304,-446
599616073440107648,-492
599616073447796864,-523
599616073455486208,-540
599616073463175424,-555
599616073470864768,-560
599616073478553984,-557
599616073486243328,-555
599616073493932544,-548
599616073501621888,-538
599616073509311104,-528
599616073517000448,-521
599616073524689664,-514
599616073532379008,-509
599616073540068224,-502
599616073547757568,-494
599616073555446784,-489
599616073563136128,-485
599616073570825472,-482
599616073578514688,-480
599616073586204032,-477
599616073593893248,-475
599616073601582592,-475
599616073609271808,-472
599616073616961152,-472
599616073624650368,-477
599616073632339712,-477
599616073640028928,-472
599616073647718272,-470
599616073655407488,-472
599616073663096832,-470
599616073670786048,-468
599616073678475392,-468
599616073686164608,-470
599616073693853952,-472
599616073701543168,-468
599616073709232512,-472
599616073716921728,-475
599616073724611072,-458
599616073732300288,-436
599616073739989632,-421
599616073747678848,-431
599616073755368192,-458
599616073763057408,-465
599616073770746752,-455
599616073778435968,-455
599616073786125312,-455
599616073793814528,-455
599616073801503872,-455
599616073809193088,-451
599616073816882432,-443
599616073824571648,-443
599616073832260992,-436
599616073839950336,-373
599616073847639508,-385
599616073855328896,-766
599616073863018240,-1358
599616073870707456,-1498
599616073878396800,-1103
599616073886086016,-703
599616073893775360,-434
599616073901464576,-247
599616073909153920,-225
599616073916843136,-249
599616073924532480,-218
599616073932221696,-206
599616073939911040,-223
599616073947600256,-215
599616073955289600,-203
599616073962978816,-198
599616073970668160,-191
599616073978357376,-179
599616073986046720,-174
599616073993735936,-164
599616074001425280,-152
599616074009114496,-138
599616074016803840,-121
599616074024493056,-109
599616074032182400,-94
599616074039871616,-82
599616074047560960,-75
599616074055250176,-72
599616074062939520,-80
599616074070628736,-97
599616074078318080,-123
599616074086007296,-162
599616074093696640,-213
599616074101385856,-278
599616074109075200,-351
599616074116764416,-409
599616074124453760,-451
599616074132143104,-480
599616074139832320,-502
599616074147521664,-511
599616074155210880,-514
599616074162900224,-514
599616074170589440,-511
599616074178278784,-502
599616074185968000,-492
599616074193657344,-485
599616074201346560,-475
599616074209035904,-468
599616074216725120,-460
599616074224414464,-455
599616074232103680,-448
599616074239793024,-446
599616074247482240,-443
599616074255171584,-438
599616074262860800,-436
599616074270550144,-441
599616074278239360,-441
599616074285928704,-438
599616074293617920,-438
599616074301307264,-443
599616074308996480,-446
599616074316685824,-438
599616074324375040,-436
599616074332064384,-438
599616074339753600,-441
599616074347442944,-436
599616074355132160,-431
599616074362821504,-434
599616074370510720,-434
599616074378200064,-431
599616074385889280,-431
599616074393578624,-429
599616074401267968,-434
599616074408957082,-441
599616074416646400,-429
599616074424335744,-409
599616074432024960,-395
599616074439714304,-397
599616074447403520,-421
599616074455092864,-434
599616074462782080,-421
599616074470471424,-419
599616074478160640,-421
599616074485849984,-419
599616074493539200,-417
599616074501228544,-412
599616074508917760,-407
599616074516607104,-400
599616074524296320,-378
599616074531985664,-312
599616074539674880,-337
599616074547364224,-720
599616074555053440,-1292
599616074562742784,-1442
599616074570432000,-1086
599616074578121344,-737
599616074585810560,-482
599616074593499904,-235
599616074601189120,-177
599616074608878464,-227
599616074616567680,-203
599616074624257024,-174
599616074631946240,-191
599616074639635584,-186
599616074647324800,-172
599616074655014144,-174
599616074662703360,-169
599616074670392704,-157
599616074678081920,-150
599616074685771264,-143
599616074693460608,-130
599616074701149824,-118
599616074708839168,-104
599616074716528384,-87
599616074724217728,-72
599616074731906944,-63
599616074739596288,-55
599616074747285504,-58
599616074754974848,-70
599616074762664064,-84
599616074770353408,-111
599616074778042624,-150
599616074785731968,-198
599616074793421184,-259
599616074801110528,-327
599616074808799744,-385
599616074816489088,-426
599616074824178304,-458
599616074831867648,-475
599616074839556864,-485
599616074847246208,-492
599616074854935424,-492
599616074862624768,-485
599616074870313984,-477
599616074878003328,-468
599616074885692544,-455
599616074893381888,-448
599616074901071104,-443
599616074908760448,-436
599616074916449664,-429
599616074924139008,-419
599616074931828224,-417
599616074939517568,-414
599616074947206784,-409
599616074954896128,-404
599616074962585472,-409
599616074970274656,-412
599616074977964032,-409
599616074985653376,-407
599616074993342592,-414
599616075001031936,-414
599616075008721152,-412
599616075016410496,-414
599616075024099712,-419
599616075031789056,-414
599616075039478272,-412
599616075047167616,-414
599616075054856832,-412
599616075062546176,-409
599616075070235392,-409
599616075077924736,-407
599616075085613952,-412
599616075093303296,-414
599616075100992512,-402
599616075108681856,-385
599616075116371072,-373
599616075124060416,-390
599616075131749632,-412
599616075139438976,-409
599616075147128192,-397
599616075154817536,-402
599616075162506752,-402
599616075170196096,-397
599616075177885312,-390
599616075185574656,-385
599616075193263872,-378
599616075200953216,-368
599616075208642432,-341
599616075216331776,-307
599616075224020992,-453
599616075231710336,-936
599616075239399552,-1387
599616075247088896,-1297
599616075254778240,-899
599616075262467456,-606
599616075270156800,-349
599616075277846016,-164
599616075285535360,-179
599616075293224576,-206
599616075300913920,-162
599616075308603136,-157
599616075316292480,-177
599616075323981696,-167
599616075331671040,-155
599616075339360256,-157
599616075347049600,-150
599616075354738816,-138
599616075362428160,-130
599616075370117376,-123
599616075377806720,-111
599616075385495936,-97
599616075393185280,-82
599616075400874496,-65
599616075408563840,-48
599616075416253056,-36
599616075423942400,-36
599616075431631616,-43
599616075439320960,-53
599616075447010176,-75
599616075454699520,-109
599616075462388736,-155
599616075470078080,-215
599616075477767296,-281
599616075485456640,-344
599616075493145856,-397
599616075500835200,-431
599616075508524416,-453
599616075516213760,-468
599616075523903104,-475
599616075531592230,-475
599616075539281408,-475
599616075546970624,-470
599616075554659840,-465
599616075562349056,-460
599616075570038272,-451
599616075577727488,-441
599616075585416704,-434
599616075593105920,-424
599616075600795136,-419
599616075608484352,-417
599616075616173568,-409
599616075623862784,-402
599616075631552000,-400
599616075639241216,-402
599616075646930432,-400
599616075654619648,-400
599616075662308864,-400
599616075669997952,-402
599616075677687168,-400
599616075685376384,-402
599616075693065600,-402
599616075700754816,-402
599616075708444032,-400
599616075716133248,-397
599616075723822464,-397
599616075731511680,-397
599616075739200896,-397
599616075746890112,-397
599616075754579328,-400
599616075762268544,-400
599616075769957760,-397
599616075777646976,-400
599616075785336192,-400
599616075793025408,-385
599616075800714624,-363
599616075808403840,-358
599616075816093056,-380
599616075823782272,-400
599616075831471488,-395
599616075839160704,-390
599616075846849920,-390
599616075854539136,-385
599616075862228352,-380
599616075869917568,-378
599616075877606784,-378
599616075885296000,-371
599616075892985216,-366
599616075900674432,-356
599616075908363648,-337
599616075916052864,-470
599616075923741952,-936
599616075931431168,-1406
599616075939120384,-1343
599616075946809600,-902
599616075954498816,-538
599616075962188032,-293
599616075969877248,-162
599616075977566464,-169
599616075985255680,-177
599616075992944896,-145
599616076000634112,-145
599616076008323328,-155
599616076016012544,-145
599616076023701760,-138
599616076031390976,-140
599616076039080192,-135
599616076046769408,-126
599616076054458624,-116
599616076062147840,-109
599616076069837056,-97
599616076077526272,-80
599616076085215488,-65
599616076092904717,-53
599616076100593920,-38
599616076108283136,-29
599616076115972352,-21
599616076123661568,-21
599616076131350784,-31
599616076139040000,-50
599616076146729216,-84
599616076154418432,-130
599616076162107648,-189
599616076169796864,-257
599616076177486080,-324
599616076185175296,-378
599616076192864512,-417
599616076200553728,-443
599616076208242944,-458
599616076215932160,-460
599616076223621376,-460
599616076231310464,-463
599616076238999680,-455
599616076246688896,-448
599616076254378112,-443
599616076262067328,-436
599616076269756544,-429
599616076277445760,-421
599616076285134976,-417
599616076292824192,-409
599616076300513408,-404
599616076308202624,-402
599616076315891840,-400
599616076323581056,-400
599616076331270272,-397
599616076338959488,-395
599616076346648704,-392
599616076354337920,-390
599616076362027136,-390
599616076369716352,-392
599616076377405568,-390
599616076385094784,-390
599616076392784000,-388
599616076400473216,-388
599616076408162432,-388
599616076415851648,-388
599616076423540864,-385
599616076431230080,-383
599616076438919296,-383
599616076446608512,-383
599616076454297728,-385
599616076461986944,-388
599616076469676160,-385
599616076477365376,-385
599616076485054464,-388
599616076492743680,-380
599616076500432896,-358
599616076508122112,-339
599616076515811328,-341
599616076523500544,-368
599616076531189760,-380
599616076538878976,-373
599616076546568192,-368
599616076554257408,-371
599616076561946624,-366
599616076569635840,-363
599616076577325056,-363
599616076585014272,-358
599616076592703488,-356
599616076600392704,-358
599616076608081920,-327
599616076615771136,-300
599616076623460352,-538
599616076631149568,-1108
599616076638838784,-1459
599616076646528000,-1195
599616076654217204,-737
599616076661906688,-426
599616076669596160,-213
599616076677285504,-143
599616076684974976,-169
599616076692664320,-152
599616076700353792,-128
599616076708043264,-135
599616076715732608,-135
599616076723422080,-123
599616076731111424,-121
599616076738800896,-121
599616076746490368,-111
599616076754179712,-101
599616076761869184,-92
599616076769558528,-84
599616076777248000,-72
599616076784937472,-58
599616076792626816,-41
599616076800316288,-26
599616076808005632,-14
599616076815695104,-7
599616076823384576,-2
599616076831073920,-7
599616076838763392,-19
599616076846452736,-41
599616076854142208,-75
599616076861831680,-123
599616076869521024,-189
599616076877210496,-259
599616076884899840,-320
599616076892589312,-371
599616076900278784,-407
599616076907968128,-434
599616076915657600,-443
599616076923347072,-448
599616076931036416,-451
599616076938725888,-448
599616076946415232,-443
599616076954104704,-436
599616076961794176,-426
599616076969483520,-417
599616076977172992,-409
599616076984862336,-402
599616076992551808,-400
599616077000241280,-392
599616077007930624,-385
599616077015620096,-383
599616077023309440,-380
599616077030998912,-378
599616077038688384,-378
599616077046377728,-378
599616077054067200,-375
599616077061756544,-375
599616077069446016,-373
599616077077135488,-373
599616077084824832,-373
599616077092514304,-375
599616077100203648,-375
599616077107893120,-375
599616077115582592,-373
599616077123271936,-371
599616077130961408,-371
599616077138650752,-373
599616077146340224,-371
599616077154029696,-368
599616077161719040,-366
599616077169408512,-371
599616077177097856,-368
599616077184787328,-366
599616077192476800,-371
599616077200166144,-368
599616077207855616,-349
599616077215544952,-329
599616077223234304,-327
599616077230923648,-351
599616077238612864,-368
599616077246302208,-358
599616077253991424,-354
599616077261680768,-358
599616077269369984,-358
599616077277059328,-354
599616077284748544,-349
599616077292437888,-346
599616077300127104,-341
599616077307816448,-339
599616077315505664,-295
599616077323195008,-244
599616077330884224,-436
599616077338573568,-999
599616077346262784,-1430
599616077353952128,-1241
599616077361641344,-807
599616077369330688,-511
599616077377019904,-254
599616077384709248,-116
599616077392398464,-152
599616077400087808,-157
599616077407777024,-116
599616077415466368,-123
599616077423155584,-133
599616077430844928,-116
599616077438534144,-109
599616077446223488,-109
599616077453912704,-101
599616077461602048,-89
599616077469291264,-82
599616077476980608,-75
599616077484669824,-60
599616077492359168,-48
599616077500048512,-36
599616077507737728,-19
599616077515427072,-2
599616077523116288,4
599616077530805632,4
599616077538494848,0
599616077546184192,-12
599616077553873408,-31
599616077561562752,-67
599616077569251968,-111
599616077576941312,-167
599616077584630528,-237
599616077592319872,-303
599616077600009088,-354
599616077607698432,-390
599616077615387648,-412
599616077623076992,-429
599616077630766208,-443
599616077638455552,-448
599616077646144768,-438
599616077653834112,-431
599616077661523328,-426
599616077669212672,-419
599616077676901888,-409
599616077684591232,-404
599616077692280448,-397
599616077699969792,-385
599616077707659008,-378
599616077715348352,-375
599616077723037568,-373
599616077730726912,-368
599616077738416128,-363
599616077746105472,-366
599616077753794688,-366
599616077761484032,-363
599616077769173376,-366
599616077776862526,-366
599616077784551808,-368
599616077792241152,-371
599616077799930368,-366
599616077807619712,-363
599616077815308928,-366
599616077822998272,-366
599616077830687488,-366
599616077838376832,-368
599616077846066048,-371
599616077853755392,-371
599616077861444608,-371
599616077869133952,-363
599616077876823168,-361
599616077884512512,-371
599616077892201728,-366
599616077899891072,-346
599616077907580288,-334
599616077915269632,-334
599616077922958848,-354
599616077930648192,-366
599616077938337408,-356
599616077946026752,-351
599616077953715968,-354
599616077961405312,-349
599616077969094528,-344
599616077976783872,-341
599616077984473088,-337
599616077992162432,-327
599616077999851648,-315
599616078007540992,-271
599616078015230208,-257
599616078022919552,-499
599616078030608768,-1040
599616078038298112,-1375
599616078045987328,-1144
599616078053676672,-756
599616078061366016,-497
599616078069055232,-237
599616078076744576,-106
599616078084433792,-150
599616078092123136,-150
599616078099812352,-111
599616078107501696,-121
599616078115190912,-126
599616078122880256,-109
599616078130569472,-109
599616078138258816,-111
599616078145948032,-97
599616078153637376,-87
599616078161326592,-82
599616078169015936,-72
599616078176705152,-58
599616078184394496,-46
599616078192083712,-29
599616078199773056,-12
599616078207462272,0
599616078215151616,7
599616078222840832,12
599616078230530176,4
599616078238219392,-12
599616078245908736,-36
599616078253597952,-70
599616078261287296,-118
599616078268976512,-186
599616078276665856,-252
599616078284355072,-312
599616078292044416,-361
599616078299733632,-390
599616078307422976,-409
599616078315112192,-421
599616078322801536,-431
599616078330490880,-434
599616078338180100,-429
599616078345869440,-426
599616078353558784,-424
599616078361248000,-409
599616078368937344,-400
599616078376626560,-395
599616078384315904,-390
599616078392005120,-383
599616078399694464,-378
599616078407383680,-368
599616078415073024,-358
599616078422762240,-358
599616078430451584,-358
599616078438140800,-358
599616078445830144,-358
599616078453519360,-354
599616078461208704,-351
599616078468897920,-356
599616078476587264,-356
599616078484276480,-354
599616078491965824,-356
599616078499655040,-356
599616078507344384,-354
599616078515033600,-356
599616078522722944,-356
599616078530412160,-354
599616078538101504,-356
599616078545790720,-356
599616078553480064,-351
599616078561169280,-351
599616078568858624,-358
599616078576547840,-356
599616078584237184,-337
599616078591926400,-320
599616078599615744,-320
599616078607304960,-341
599616078614994304,-354
599616078622683648,-349
599616078630372864,-344
599616078638062208,-346
599616078645751424,-346
599616078653440768,-341
599616078661129984,-339
599616078668819328,-334
599616078676508544,-322
599616078684197888,-307
599616078691887104,-286
599616078699576448,-276
599616078707265664,-451
599616078714955008,-943
599616078722644224,-1377
599616078730333568,-1263
599616078738022784,-836
599616078745712128,-509
599616078753401344,-254
599616078761090688,-109
599616078768779904,-130
599616078776469248,-143
599616078784158464,-104
599616078791847808,-104
599616078799537024,-116
599616078807226368,-104
599616078814915584,-94
599616078822604928,-97
599616078830294144,-89
599616078837983488,-80
599616078845672704,-72
599616078853362048,-67
599616078861051264,-53
599616078868740608,-38
599616078876429824,-26
599616078884119168,-9
599616078891808512,4
599616078899497674,12
599616078907187072,19
599616078914876416,16
599616078922565632,2
599616078930254976,-21
599616078937944192,-58
599616078945633536,-109
599616078953322752,-169
599616078961012096,-235
599616078968701312,-300
599616078976390656,-351
599616078984079872,-385
599616078991769216,-404
599616078999458432,-419
599616079007147776,-429
599616079014836992,-431
599616079022526336,-429
599616079030215552,-424
599616079037904896,-417
599616079045594112,-407
599616079053283456,-402
599616079060972672,-395
599616079068662016,-385
599616079076351232,-380
599616079084040576,-375
599616079091729792,-366
599616079099419136,-361
599616079107108352,-358
599616079114797696,-358
599616079122486912,-354
599616079130176256,-354
599616079137865472,-351
599616079145554816,-351
599616079153244032,-354
599616079160933376,-356
599616079168622592,-354
599616079176311936,-354
599616079184001280,-354
599616079191690496,-351
599616079199379840,-351
599616079207069056,-354
599616079214758400,-354
599616079222447616,-351
599616079230136960,-349
599616079237826176,-351
599616079245515520,-356
599616079253204736,-351
599616079260894080,-351
599616079268583296,-354
599616079276272640,-344
599616079283961856,-324
599616079291651200,-312
599616079299340416,-317
599616079307029760,-341
599616079314718976,-351
599616079322408320,-344
599616079330097536,-341
599616079337786880,-344
599616079345476096,-339
599616079353165440,-337
599616079360854656,-339
599616079368544000,-334
599616079376233216,-322
599616079383922560,-317
599616079391611776,-291
599616079399301120,-291
599616079406990336,-577
599616079414679680,-1144
599616079422368896,-1430
599616079430058240,-1120
599616079437747456,-664
599616079445436800,-366
599616079453126144,-167
599616079460815248,-109
599616079468504320,-133
599616079476193408,-118
599616079483882624,-99
599616079491571712,-104
599616079499260928,-104
599616079506950016,-94
599616079514639232,-94
599616079522328320,-92
599616079530017408,-82
599616079537706624,-72
599616079545395712,-65
599616079553084928,-53
599616079560774016,-41
599616079568463232,-31
599616079576152320,-16
599616079583841408,0
599616079591530624,14
599616079599219712,21
599616079606908928,21
599616079614598016,14
599616079622287232,2
599616079629976320,-21
599616079637665408,-60
599616079645354624,-111
599616079653043712,-177
599616079660732928,-249
599616079668422016,-310
599616079676111104,-354
599616079683800320,-383
599616079691489408,-404
599616079699178624,-417
599616079706867712,-424
599616079714556928,-424
599616079722246016,-419
599616079729935104,-414
599616079737624320,-407
599616079745313408,-400
599616079753002624,-390
599616079760691712,-385
599616079768380928,-380
599616079776070016,-371
599616079783759104,-363
599616079791448320,-363
599616079799137408,-361
599616079806826624,-354
599616079814515712,-351
599616079822204928,-349
599616079829894016,-349
599616079837583104,-349
599616079845272320,-349
599616079852961408,-349
599616079860650624,-351
599616079868339712,-354
599616079876028928,-354
599616079883718016,-354
599616079891407104,-351
599616079899096320,-349
599616079906785408,-349
599616079914474624,-349
599616079922163712,-349
599616079929852928,-349
599616079937542016,-354
599616079945231104,-351
599616079952920320,-351
599616079960609408,-351
599616079968298624,-341
599616079975987712,-320
599616079983676928,-303
599616079991366016,-315
599616079999055104,-341
599616080006744320,-341
599616080014433408,-334
599616080022122648,-337
599616080029811840,-337
599616080037501056,-332
599616080045190272,-327
599616080052879488,-324
599616080060568704,-320
599616080068257920,-317
599616080075947136,-315
599616080083636352,-276
599616080091325568,-276
599616080099014784,-582
599616080106704000,-1168
599616080114393216,-1425
599616080122082432,-1074
599616080129771648,-630
599616080137460864,-346
599616080145150080,-147
599616080152839296,-101
599616080160528384,-130
599616080168217600,-106
599616080175906816,-89
599616080183596032,-101
599616080191285248,-97
599616080198974464,-84
599616080206663680,-84
599616080214352896,-80
599616080222042112,-67
599616080229731328,-60
599616080237420544,-53
599616080245109760,-41
599616080252798976,-26
599616080260488192,-12
599616080268177408,4
599616080275866624,19
599616080283555840,31
599616080291245056,38
599616080298934272,41
599616080306623488,36
599616080314312704,21
599616080322001920,-4
599616080329691136,-38
599616080337380352,-89
599616080345069568,-160
599616080352758784,-235
599616080360448000,-295
599616080368137216,-344
599616080375826432,-380
599616080383515648,-400
599616080391204864,-407
599616080398894080,-414
599616080406583296,-417
599616080414272384,-417
599616080421961600,-409
599616080429650816,-397
599616080437340032,-390
599616080445029248,-385
599616080452718464,-375
599616080460407680,-363
599616080468096896,-358
599616080475786112,-354
599616080483475328,-351
599616080491164544,-349
599616080498853760,-344
599616080506542976,-341
599616080514232192,-344
599616080521921408,-341
599616080529610624,-341
599616080537299840,-344
599616080544989056,-344
599616080552678272,-341
599616080560367488,-339
599616080568056704,-339
599616080575745920,-341
599616080583435135,-341
599616080591124224,-339
599616080598813312,-339
599616080606502400,-337
599616080614191488,-334
599616080621880576,-332
599616080629569536,-332
599616080637258624,-337
599616080644947712,-337
599616080652636800,-339
599616080660325888,-344
599616080668014976,-337
599616080675704064,-317
599616080683393152,-303
599616080691082112,-303
599616080698771200,-320
599616080706460288,-334
599616080714149376,-327
599616080721838464,-320
599616080729527552,-324
599616080737216640,-324
599616080744905728,-317
599616080752594816,-312
599616080760283776,-310
599616080767972864,-305
599616080775661952,-288
599616080783351040,-242
599616080791040128,-220
599616080798729216,-475
599616080806418304,-1045
599616080814107392,-1387
599616080821796352,-1137
599616080829485440,-732
599616080837174528,-460
599616080844863616,-198
599616080852552704,-75
599616080860241792,-121
599616080867930880,-121
599616080875619968,-84
599616080883308928,-97
599616080890998016,-106
599616080898687104,-87
599616080906376192,-80
599616080914065280,-80
599616080921754368,-72
599616080929443456,-63
599616080937132544,-55
599616080944821632,-41
599616080952510592,-31
599616080960199680,-16
599616080967888768,0
599616080975577856,19
599616080983266944,31
599616080990956032,38
599616080998645120,41
599616081006334208,33
599616081014023168,16
599616081021712256,-2
599616081029401344,-36
599616081037090432,-87
599616081044779520,-155
599616081052468608,-227
599616081060157696,-286
599616081067846784,-329
599616081075535872,-363
599616081083224832,-390
599616081090913920,-404
599616081098603008,-412
599616081106292096,-409
599616081113981184,-404
599616081121670272,-402
599616081129359360,-395
599616081137048448,-388
599616081144737452,-380
599616081152426752,-371
599616081160116096,-361
599616081167805440,-356
599616081175494784,-351
599616081183184128,-344
599616081190873472,-337
599616081198562816,-337
599616081206252160,-334
599616081213941504,-329
599616081221630976,-332
599616081229320320,-334
599616081237009664,-334
599616081244699008,-332
599616081252388352,-332
599616081260077696,-332
599616081267767040,-332
599616081275456384,-334
599616081283145728,-332
599616081290835072,-332
599616081298524416,-332
599616081306213760,-332
599616081313903104,-332
599616081321592448,-334
599616081329281792,-332
599616081336971136,-322
599616081344660480,-332
599616081352349952,-339
599616081360039296,-324
599616081367728640,-310
599616081375417984,-307
599616081383107328,-322
599616081390796672,-339
599616081398486016,-334
599616081406175360,-332
599616081413864704,-334
599616081421554048,-329
599616081429243392,-322
599616081436932736,-322
599616081444622080,-322
599616081452311424,-310
599616081460000768,-293
599616081467690112,-269
599616081475379456,-244
599616081483068928,-378
599616081490758272,-836
599616081498447616,-1314
599616081506136960,-1280
599616081513826304,-875
599616081521515648,-552
599616081529204992,-293
599616081536894336,-101
599616081544583680,-104
599616081552273024,-133
599616081559962368,-94
599616081567651712,-87
599616081575341056,-101
599616081583030400,-92
599616081590719744,-82
599616081598409088,-82
599616081606098432,-72
599616081613787776,-65
599616081621477248,-60
599616081629166592,-48
599616081636855936,-36
599616081644545280,-19
599616081652234624,-4
599616081659923968,7
599616081667613312,26
599616081675302656,38
599616081682992000,43
599616081690681344,41
599616081698370688,31
599616081706060109,12
599616081713749376,-19
599616081721438592,-67
599616081729127808,-130
599616081736817024,-203
599616081744506240,-271
599616081752195456,-324
599616081759884672,-361
599616081767573888,-385
599616081775263104,-400
599616081782952320,-407
599616081790641536,-412
599616081798330752,-409
599616081806019968,-404
599616081813709184,-402
599616081821398400,-397
599616081829087616,-385
599616081836776832,-378
599616081844465920,-371
599616081852155136,-363
599616081859844352,-354
599616081867533568,-349
599616081875222784,-346
599616081882912000,-344
599616081890601216,-341
599616081898290432,-339
599616081905979648,-337
599616081913668864,-337
599616081921358080,-337
599616081929047296,-337
599616081936736512,-337
599616081944425728,-337
599616081952114944,-337
599616081959804160,-339
599616081967493376,-337
599616081975182592,-334
599616081982871808,-334
599616081990561024,-332
599616081998250240,-332
599616082005939456,-334
599616082013628672,-337
599616082021317888,-329
599616082029007104,-332
599616082036696320,-337
599616082044385536,-327
599616082052074752,-307
599616082059763968,-293
599616082067453184,-303
599616082075142400,-327
599616082082831616,-332
599616082090520832,-322
599616082098209920,-322
599616082105899136,-322
599616082113588352,-317
599616082121277568,-315
599616082128966784,-315
599616082136656000,-307
599616082144345216,-295
599616082152034432,-283
599616082159723648,-261
599616082167412864,-312
599616082175102080,-645
599616082182791296,-1195
599616082190480512,-1418
599616082198169728,-1074
599616082205858944,-625
599616082213548160,-334
599616082221237376,-135
599616082228926592,-82
599616082236615808,-111
599616082244305024,-94
599616082251994240,-72
599616082259683456,-80
599616082267372596,-80
599616082275061888,-70
599616082282751232,-70
599616082290440448,-65
599616082298129792,-58
599616082305819008,-50
599616082313508352,-46
599616082321197568,-33
599616082328886912,-21
599616082336576128,-9
599616082344265472,9
599616082351954688,26
599616082359644032,38
599616082367333248,46
599616082375022592,48
599616082382711808,43
599616082390401152,21
599616082398090368,-4
599616082405779712,-46
599616082413468928,-99
599616082421158272,-169
599616082428847488,-242
599616082436536832,-303
599616082444226048,-344
599616082451915392,-375
599616082459604608,-395
599616082467293952,-402
599616082474983168,-404
599616082482672512,-407
599616082490361728,-404
599616082498051072,-397
599616082505740288,-388
599616082513429632,-380
599616082521118848,-373
599616082528808192,-368
599616082536497536,-361
599616082544186752,-354
599616082551876096,-349
599616082559565312,-344
599616082567254656,-339
599616082574943872,-334
599616082582633216,-332
599616082590322432,-332
599616082598011776,-329
599616082605700992,-327
599616082613390336,-327
599616082621079552,-329
599616082628768896,-332
599616082636458112,-329
599616082644147456,-329
599616082651836672,-329
599616082659526016,-329
599616082667215232,-327
599616082674904576,-327
599616082682593792,-324
599616082690283136,-327
599616082697972352,-329
599616082705661696,-329
599616082713350912,-327
599616082721040256,-329
599616082728729472,-329
599616082736418816,-317
599616082744108032,-295
599616082751797376,-283
599616082759486592,-298
599616082767175936,-322
599616082774865152,-322
599616082782554496,-315
599616082790243712,-315
599616082797933056,-315
599616082805622400,-312
599616082813311616,-310
599616082821000960,-307
599616082828690174,-303
599616082836379776,-298
599616082844069376,-295
599616082851758848,-264
599616082859448448,-291
599616082867138048,-642
599616082874827520,-1219
599616082882517120,-1396
599616082890206720,-1004
599616082897896320,-567
599616082905585792,-293
599616082913275392,-118
599616082920964992,-92
599616082928654464,-113
599616082936344064,-89
599616082944033664,-77
599616082951723136,-84
599616082959412736,-77
599616082967102336,-70
599616082974791808,-70
599616082982481408,-67
599616082990171008,-58
599616082997860608,-50
599616083005550080,-38
599616083013239680,-26
599616083020929280,-14
599616083028618752,-2
599616083036308352,14
599616083043997952,33
599616083051687424,46
599616083059377024,50
599616083067066624,55
599616083074756096,48
599616083082445696,31
599616083090135296,4
599616083097824896,-33
599616083105514368,-92
599616083113203968,-164
599616083120893568,-237
599616083128583040,-298
599616083136272640,-341
599616083143962240,-368
599616083151651712,-388
599616083159341312,-397
599616083167030912,-402
599616083174720384,-402
599616083182409984,-400
599616083190099584,-395
599616083197789184,-385
599616083205478656,-378
599616083213168256,-371
599616083220857856,-363
599616083228547328,-356
599616083236236928,-349
599616083243926528,-344
599616083251616000,-339
599616083259305600,-334
599616083266995200,-332
599616083274684672,-329
599616083282374272,-327
599616083290063872,-327
599616083297753344,-324
599616083305442944,-327
599616083313132544,-327
599616083320822144,-327
599616083328511616,-322
599616083336201216,-322
599616083343890816,-324
599616083351580288,-324
599616083359269888,-322
599616083366959488,-322
599616083374648960,-320
599616083382338560,-320
599616083390028092,-320
599616083397717248,-324
599616083405406464,-327
599616083413095680,-324
599616083420784896,-327
599616083428474112,-329
599616083436163328,-315
599616083443852544,-293
599616083451541760,-278
599616083459230976,-288
599616083466920192,-315
599616083474609408,-322
599616083482298624,-312
599616083489987840,-312
599616083497677056,-312
599616083505366272,-307
599616083513055488,-303
599616083520744704,-303
599616083528433792,-300
599616083536123008,-295
599616083543812224,-286
599616083551501440,-230
599616083559190656,-232
599616083566879872,-582
599616083574569088,-1183
599616083582258304,-1387
599616083589947520,-1011
599616083597636736,-586
599616083605325952,-312
599616083613015168,-113
599616083620704384,-80
599616083628393600,-111
599616083636082816,-84
599616083643772032,-65
599616083651461248,-80
599616083659150464,-75
599616083666839680,-60
599616083674528896,-60
599616083682218112,-55
599616083689907328,-46
599616083697596544,-38
599616083705285760,-29
599616083712974976,-14
599616083720664192,-2
599616083728353408,9
599616083736042624,26
599616083743731840,43
599616083751421056,55
599616083759110272,65
599616083766799488,67
599616083774488704,60
599616083782177792,43
599616083789867008,16
599616083797556224,-21
599616083805245440,-77
599616083812934656,-150
599616083820623872,-225
599616083828313088,-281
599616083836002304,-327
599616083843691520,-361
599616083851380736,-383
599616083859069952,-392
599616083866759168,-397
599616083874448384,-397
599616083882137600,-392
599616083889826816,-388
599616083897516032,-378
599616083905205248,-368
599616083912894464,-366
599616083920583680,-358
599616083928272896,-346
599616083935962112,-341
599616083943651328,-337
599616083951340579,-329
599616083959029632,-327
599616083966718720,-324
599616083974407808,-324
599616083982096896,-322
599616083989785984,-317
599616083997474944,-320
599616084005164032,-324
599616084012853120,-322
599616084020542208,-320
599616084028231296,-320
599616084035920384,-320
599616084043609472,-320
599616084051298560,-320
599616084058987520,-320
599616084066676608,-320
599616084074365696,-317
599616084082054784,-315
599616084089743872,-315
599616084097432960,-312
599616084105122048,-312
599616084112811136,-317
599616084120500224,-317
599616084128189184,-312
599616084135878272,-320
599616084143567360,-320
599616084151256448,-305
599616084158945536,-286
599616084166634624,-276
599616084174323712,-293
599616084182012800,-315
599616084189701760,-315
599616084197390848,-307
599616084205079936,-307
599616084212769024,-305
599616084220458112,-298
599616084228147200,-298
599616084235836288,-295
599616084243525376,-288
599616084251214336,-274
599616084258903424,-242
599616084266592512,-213
599616084274281600,-371
599616084281970688,-870
599616084289659776,-1331
599616084297348864,-1229
599616084305037952,-807
599616084312727040,-502
599616084320416000,-240
599616084328105088,-65
599616084335794176,-82
599616084343483264,-106
599616084351172352,-65
599616084358861440,-63
599616084366550528,-77
599616084374239616,-67
599616084381928576,-58
599616084389617664,-58
599616084397306752,-50
599616084404995840,-43
599616084412684928,-36
599616084420374016,-31
599616084428063104,-19
599616084435752192,-2
599616084443441280,14
599616084451130240,31
599616084458819328,48
599616084466508416,58
599616084474197504,63
599616084481886592,63
599616084489575680,50
599616084497264768,29
599616084504953856,-4
599616084512642896,-50
599616084520332288,-116
599616084528021632,-189
599616084535710848,-254
599616084543400192,-305
599616084551089408,-344
599616084558778752,-371
599616084566467968,-388
599616084574157312,-392
599616084581846528,-395
599616084589535872,-395
599616084597225088,-390
599616084604914432,-383
599616084612603648,-375
599616084620292992,-366
599616084627982208,-358
599616084635671552,-351
599616084643360768,-344
599616084651050112,-339
599616084658739328,-332
599616084666428672,-324
599616084674117888,-320
599616084681807232,-317
599616084689496448,-317
599616084697185792,-317
599616084704875008,-315
599616084712564352,-315
599616084720253568,-317
599616084727942912,-317
599616084735632128,-317
599616084743321472,-320
599616084751010688,-320
599616084758700032,-317
599616084766389248,-315
599616084774078592,-315
599616084781767808,-315
599616084789457152,-315
599616084797146496,-317
599616084804835712,-315
599616084812525056,-312
599616084820214272,-307
599616084827903616,-305
599616084835592832,-315
599616084843282176,-317
599616084850971392,-305
599616084858660736,-286
599616084866349952,-276
599616084874039296,-291
599616084881728512,-312
599616084889417856,-312
599616084897107072,-307
599616084904796416,-310
599616084912485632,-307
599616084920174976,-303
599616084927864192,-303
599616084935553536,-303
599616084943242752,-293
599616084950932096,-276
599616084958621312,-252
599616084966310656,-232
599616084973999872,-371
599616084981689216,-836
599616084989378432,-1319
599616084997067776,-1285
599616085004756992,-856
599616085012446336,-506
599616085020135552,-252
599616085027824896,-77
599616085035514112,-82
599616085043203456,-104
599616085050892672,-70
599616085058582016,-63
599616085066271360,-77
599616085073960470,-65
599616085081649792,-55
599616085089339136,-55
599616085097028352,-53
599616085104717696,-43
599616085112406912,-36
599616085120096256,-26
599616085127785472,-12
599616085135474816,2
599616085143164032,19
599616085150853376,33
599616085158542592,50
599616085166231936,65
599616085173921152,72
599616085181610496,70
599616085189299712,58
599616085196989056,36
599616085204678272,4
599616085212367616,-46
599616085220056832,-111
599616085227746176,-184
599616085235435392,-254
599616085243124736,-310
599616085250813952,-346
599616085258503296,-366
599616085266192512,-380
599616085273881856,-390
599616085281571072,-390
599616085289260416,-390
599616085296949632,-388
599616085304638976,-378
599616085312328192,-371
599616085320017536,-363
599616085327706752,-356
599616085335396096,-349
599616085343085312,-339
599616085350774656,-334
599616085358464000,-329
599616085366153216,-322
599616085373842560,-320
599616085381531776,-315
599616085389221120,-312
599616085396910336,-312
599616085404599680,-310
599616085412288896,-312
599616085419978240,-315
599616085427667456,-312
599616085435356800,-315
599616085443046016,-320
599616085450735360,-317
599616085458424576,-315
599616085466113920,-317
599616085473803136,-317
599616085481492480,-312
599616085489181696,-312
599616085496871040,-312
599616085504560256,-312
599616085512249600,-312
599616085519938816,-315
599616085527628160,-317
599616085535317376,-310
599616085543006720,-312
599616085550695936,-317
599616085558385280,-305
599616085566074496,-283
599616085573763840,-269
599616085581453056,-281
599616085589142400,-305
599616085596831616,-305
599616085604520960,-295
599616085612210176,-298
599616085619899520,-298
599616085627588864,-293
599616085635278044,-291
599616085642967424,-288
599616085650656768,-281
599616085658345984,-274
599616085666035328,-269
599616085673724544,-244
599616085681413888,-300
599616085689103104,-674
599616085696792448,-1227
599616085704481664,-1375
599616085712171008,-977
599616085719860224,-538
599616085727549568,-269
599616085735238784,-99
599616085742928128,-67
599616085750617344,-89
599616085758306688,-70
599616085765995904,-55
599616085773685248,-63
599616085781374464,-60
599616085789063808,-53
599616085796753024,-48
599616085804442368,-43
599616085812131584,-38
599616085819820928,-31
599616085827510144,-19
599616085835199488,-7
599616085842888704,4
599616085850578048,16
599616085858267264,33
599616085865956608,50
599616085873645824,65
599616085881335168,75
599616085889024384,77
599616085896713728,70
599616085904402944,53
599616085912092288,26
599616085919781632,-14
599616085927470848,-75
599616085935160192,-152
599616085942849408,-230
599616085950538752,-288
599616085958227968,-329
599616085965917312,-358
599616085973606528,-378
599616085981295872,-385
599616085988985088,-390
599616085996674432,-390
599616086004363648,-388
599616086012052992,-380
599616086019742208,-373
599616086027431552,-366
599616086035120768,-358
599616086042810112,-351
599616086050499328,-346
599616086058188672,-339
599616086065877888,-332
599616086073567232,-327
599616086081256448,-324
599616086088945792,-320
599616086096635008,-315
599616086104324352,-312
599616086112013568,-312
599616086119702912,-315
599616086127392128,-312
599616086135081472,-310
599616086142770688,-312
599616086150460032,-312
599616086158149248,-310
599616086165838592,-310
599616086173527808,-312
599616086181217152,-310
599616086188906496,-310
599616086196595618,-310
599616086204284928,-307
599616086211974272,-307
599616086219663488,-312
599616086227352832,-312
599616086235042048,-305
599616086242731392,-307
599616086250420608,-315
599616086258109952,-300
599616086265799168,-276
599616086273488512,-266
599616086281177728,-283
599616086288867072,-305
599616086296556288,-305
599616086304245632,-298
599616086311934848,-303
599616086319624192,-303
599616086327313408,-295
599616086335002752,-293
599616086342691968,-291
599616086350381312,-288
599616086358070528,-283
599616086365759872,-274
599616086373449088,-227
599616086381138432,-278
599616086388827648,-683
599616086396516992,-1258
599616086404206208,-1355
599616086411895552,-916
599616086419584768,-499
599616086427274112,-247
599616086434963328,-84
599616086442652672,-75
599616086450341888,-97
599616086458031232,-67
599616086465720448,-58
599616086473409792,-67
599616086481099136,-58
599616086488788352,-48
599616086496477696,-50
599616086504166912,-46
599616086511856256,-36
599616086519545472,-24
599616086527234816,-12
599616086534924032,-2
599616086542613376,7
599616086550302592,29
599616086557991936,50
599616086565681152,65
599616086573370496,80
599616086581059712,89
599616086588749056,89
599616086596438272,82
599616086604127616,65
599616086611816832,36
599616086619506176,-7
599616086627195392,-72
599616086634884736,-150
599616086642573952,-223
599616086650263296,-281
599616086657952512,-322
599616086665641856,-351
599616086673331072,-373
599616086681020416,-380
599616086688709632,-380
599616086696398976,-380
599616086704088192,-378
599616086711777536,-371
599616086719466752,-366
599616086727156096,-363
599616086734845312,-351
599616086742534656,-337
599616086750224000,-334
599616086757913192,-329
599616086765602560,-322
599616086773291904,-317
599616086780981120,-312
599616086788670464,-310
599616086796359680,-310
599616086804049024,-305
599616086811738240,-305
599616086819427584,-305
599616086827116800,-305
599616086834806144,-307
599616086842495360,-305
599616086850184704,-305
599616086857873920,-307
599616086865563264,-307
599616086873252480,-305
599616086880941824,-305
599616086888631040,-305
599616086896320384,-303
599616086904009600,-303
599616086911698944,-303
599616086919388160,-300
599616086927077504,-293
599616086934766720,-295
599616086942456064,-310
599616086950145280,-305
599616086957834624,-283
599616086965523840,-271
599616086973213184,-274
599616086980902400,-293
599616086988591744,-303
599616086996280960,-298
599616087003970304,-295
599616087011659520,-295
599616087019348864,-291
599616087027038080,-288
599616087034727424,-288
599616087042416768,-283
599616087050105984,-271
599616087057795328,-254
599616087065484544,-213
599616087073173888,-230
599616087080863104,-543
599616087088552448,-1108
599616087096241664,-1367
599616087103931008,-1054
599616087111620224,-647
599616087119309568,-378
599616087126998784,-133
599616087134688128,-46
599616087142377344,-94
599616087150066688,-80
599616087157755904,-48
599616087165445248,-63
599616087173134464,-65
599616087180823808,-48
599616087188513024,-48
599616087196202368,-48
599616087203891584,-33
599616087211580928,-24
599616087219270144,-21
599616087226959488,-9
599616087234648704,4
599616087242338048,21
599616087250027264,41
599616087257716608,58
599616087265405824,67
599616087273095168,80
599616087280784384,84
599616087288473728,77
599616087296162944,63
599616087303852288,38
599616087311541632,-4
599616087319230766,-63
599616087326920064,-135
599616087334609408,-210
599616087342298624,-271
599616087349987968,-315
599616087357677184,-346
599616087365366528,-366
599616087373055744,-378
599616087380745088,-380
599616087388434304,-383
599616087396123648,-383
599616087403812864,-375
599616087411502208,-368
599616087419191424,-361
599616087426880768,-354
599616087434569984,-344
599616087442259328,-339
599616087449948544,-334
599616087457637888,-324
599616087465327104,-320
599616087473016448,-317
599616087480705664,-312
599616087488395008,-310
599616087496084224,-307
599616087503773568,-307
599616087511462784,-310
599616087519152128,-310
599616087526841344,-305
599616087534530688,-307
599616087542219904,-310
599616087549909248,-310
599616087557598464,-310
599616087565287808,-310
599616087572977024,-305
599616087580666368,-303
599616087588355584,-305
599616087596044928,-305
599616087603734272,-300
599616087611423488,-295
599616087619112832,-295
599616087626802048,-305
599616087634491392,-303
599616087642180608,-288
599616087649869952,-274
599616087657559168,-271
599616087665248512,-293
599616087672937728,-307
599616087680627072,-300
599616087688316288,-295
599616087696005632,-298
599616087703694848,-295
599616087711384192,-291
599616087719073408,-288
599616087726762752,-286
599616087734451968,-271
599616087742141312,-247
599616087749830528,-218
599616087757519872,-257
599616087765209088,-548
599616087772898432,-1086
599616087780587648,-1384
599616087788276992,-1113
599616087795966208,-671
599616087803655552,-380
599616087811344768,-145
599616087819034112,-50
599616087826723328,-89
599616087834412672,-82
599616087842101888,-48
599616087849791232,-60
599616087857480448,-65
599616087865169792,-50
599616087872859136,-48
599616087880548340,-48
599616087888237696,-38
599616087895927040,-29
599616087903616256,-19
599616087911305600,-9
599616087918994816,2
599616087926684160,16
599616087934373376,33
599616087942062720,48
599616087949751936,60
599616087957441280,72
599616087965130496,77
599616087972819840,70
599616087980509056,53
599616087988198400,29
599616087995887616,-9
599616088003576960,-67
599616088011266176,-138
599616088018955520,-210
599616088026644736,-274
599616088034334080,-317
599616088042023296,-344
599616088049712640,-363
599616088057401856,-375
599616088065091200,-378
599616088072780416,-380
599616088080469760,-378
599616088088158976,-371
599616088095848320,-363
599616088103537536,-356
599616088111226880,-351
599616088118916096,-344
599616088126605440,-334
599616088134294656,-327
599616088141984000,-322
599616088149673216,-315
599616088157362560,-312
599616088165051904,-307
599616088172741120,-305
599616088180430464,-303
599616088188119680,-300
599616088195809024,-300
599616088203498240,-303
599616088211187584,-300
599616088218876800,-300
599616088226566144,-300
599616088234255360,-300
599616088241944704,-300
599616088249633920,-300
599616088257323264,-300
599616088265012480,-298
599616088272701824,-298
599616088280391040,-298
599616088288080384,-298
599616088295769600,-300
599616088303458944,-300
599616088311148160,-295
599616088318837504,-298
599616088326526720,-300
599616088334216064,-288
599616088341905280,-269
599616088349594624,-259
599616088357283840,-278
599616088364973184,-300
599616088372662400,-298
599616088380351744,-293
599616088388040960,-295
599616088395730304,-293
599616088403419520,-288
599616088411108864,-286
599616088418798080,-283
599616088426487424,-276
599616088434176768,-269
599616088441865914,-257
599616088449555200,-240
599616088457244544,-351
599616088464933760,-795
599616088472623104,-1326
599616088480312320,-1341
599616088488001664,-868
599616088495690880,-453
599616088503380224,-215
599616088511069440,-80
599616088518758784,-70
599616088526448000,-82
599616088534137344,-58
599616088541826560,-50
599616088549515904,-60
599616088557205120,-53
599616088564894464,-48
599616088572583680,-50
599616088580273024,-43
599616088587962240,-31
599616088595651584,-26
599616088603340800,-19
599616088611030144,-4
599616088618719360,9
599616088626408704,24
599616088634097920,41
599616088641787264,55
599616088649476480,67
599616088657165824,72
599616088664855040,75
599616088672544384,65
599616088680233600,48
599616088687922944,19
599616088695612160,-29
599616088703301504,-94
599616088710990720,-167
599616088718680064,-237
599616088726369408,-293
599616088734058624,-329
599616088741747968,-354
599616088749437184,-373
599616088757126528,-380
599616088764815744,-378
599616088772505088,-375
599616088780194304,-373
599616088787883648,-368
599616088795572864,-358
599616088803262208,-351
599616088810951424,-346
599616088818640768,-339
599616088826329984,-332
599616088834019328,-324
599616088841708544,-322
599616088849397888,-320
599616088857087104,-312
599616088864776448,-307
599616088872465664,-303
599616088880155008,-303
599616088887844224,-303
599616088895533568,-305
599616088903222784,-305
599616088910912128,-305
599616088918601344,-305
599616088926290688,-305
599616088933979904,-305
599616088941669248,-305
599616088949358464,-307
599616088957047808,-310
599616088964737024,-307
599616088972426368,-303
599616088980115584,-305
599616088987804928,-310
599616088995494272,-307
599616089003183488,-303
599616089010872704,-310
599616089018561920,-307
599616089026251136,-291
599616089033940352,-269
599616089041629568,-261
599616089049318784,-281
599616089057008000,-303
599616089064697216,-298
599616089072386432,-291
599616089080075648,-293
599616089087764864,-293
599616089095454080,-288
599616089103143296,-283
599616089110832512,-281
599616089118521728,-278
599616089126210944,-276
599616089133900160,-257
599616089141589248,-198
599616089149278464,-288
599616089156967680,-776
599616089164656896,-1328
599616089172346112,-1304
599616089180035328,-831
599616089187724544,-455
599616089195413760,-210
599616089203102976,-65
599616089210792192,-70
599616089218481408,-84
599616089226170624,-53
599616089233859840,-48
599616089241549056,-55
599616089249238272,-46
599616089256927488,-38
599616089264616704,-41
599616089272305920,-31
599616089279995136,-21
599616089287684352,-14
599616089295373568,-2
599616089303062784,12
599616089310752000,21
599616089318441216,38
599616089326130432,58
599616089333819648,72
599616089341508864,84
599616089349198080,92
599616089356887296,89
599616089364576512,80
599616089372265728,63
599616089379954944,31
599616089387644160,-16
599616089395333248,-82
599616089403022464,-157
599616089410711680,-227
599616089418400896,-283
599616089426090112,-322
599616089433779328,-349
599616089441468544,-363
599616089449157760,-373
599616089456846976,-378
599616089464536192,-378
599616089472225408,-373
599616089479914624,-363
599616089487603840,-354
599616089495293056,-349
599616089502982272,-341
599616089510671488,-332
599616089518360704,-322
599616089526049920,-317
599616089533739136,-315
599616089541428352,-307
599616089549117568,-303
599616089556806784,-303
599616089564495975,-300
599616089572185216,-295
599616089579874432,-295
599616089587563648,-300
599616089595252864,-300
599616089602942080,-298
599616089610631296,-298
599616089618320512,-298
599616089626009728,-295
599616089633698944,-298
599616089641388160,-298
599616089649077376,-295
599616089656766592,-295
599616089664455808,-293
599616089672145024,-295
599616089679834240,-295
599616089687523456,-293
599616089695212672,-293
599616089702901760,-298
599616089710590976,-300
599616089718280192,-286
599616089725969408,-266
599616089733658624,-254
599616089741347840,-269
599616089749037056,-293
599616089756726272,-293
599616089764415488,-283
599616089772104704,-286
599616089779793920,-286
599616089787483136,-281
599616089795172352,-274
599616089802861568,-274
599616089810550784,-271
599616089818240000,-259
599616089825929216,-232
599616089833618432,-172
599616089841307648,-240
599616089848996864,-683
599616089856686080,-1253
599616089864375296,-1319
599616089872064512,-906
599616089879753728,-543
599616089887442944,-281
599616089895132160,-67
599616089902821376,-48
599616089910510592,-89
599616089918199808,-55
599616089925889024,-38
599616089933578240,-55
599616089941267456,-50
599616089948956672,-38
599616089956645760,-38
599616089964334976,-38
599616089972024192,-29
599616089979713408,-14
599616089987402624,-2
599616089995091840,4
599616090002781056,19
599616090010470272,36
599616090018159488,55
599616090025848704,70
599616090033537920,80
599616090041227136,87
599616090048916352,84
599616090056605568,75
599616090064294784,55
599616090071984000,26
599616090079673216,-16
599616090087362432,-77
599616090095051648,-152
599616090102740864,-223
599616090110430080,-278
599616090118119296,-317
599616090125808462,-346
599616090133497728,-366
599616090141186944,-373
599616090148876160,-373
599616090156565376,-368
599616090164254592,-366
599616090171943808,-363
599616090179633024,-358
599616090187322240,-351
599616090195011456,-341
599616090202700672,-329
599616090210389888,-327
599616090218079104,-322
599616090225768320,-315
599616090233457536,-310
599616090241146752,-305
599616090248835968,-298
599616090256525184,-298
599616090264214272,-295
599616090271903488,-293
599616090279592704,-295
599616090287281920,-298
599616090294971136,-298
599616090302660352,-295
599616090310349568,-298
599616090318038784,-300
599616090325728000,-300
599616090333417216,-298
599616090341106432,-295
599616090348795648,-295
599616090356484864,-298
599616090364174080,-298
599616090371863296,-293
599616090379552512,-288
599616090387241728,-291
599616090394930944,-298
599616090402620160,-293
599616090410309376,-276
599616090417998592,-261
599616090425687808,-266
599616090433377024,-288
599616090441066240,-298
599616090448755456,-291
599616090456444672,-288
599616090464133888,-291
599616090471823104,-291
599616090479512320,-286
599616090487201536,-281
599616090494890752,-276
599616090502579968,-261
599616090510269184,-237
599616090517958272,-201
599616090525647488,-240
599616090533336704,-569
599616090541025920,-1130
599616090548715136,-1367
599616090556404352,-1042
599616090564093568,-625
599616090571782784,-346
599616090579472000,-116
599616090587161216,-46
599616090594850432,-87
599616090602539648,-67
599616090610228864,-41
599616090617918080,-55
599616090625607296,-55
599616090633296512,-38
599616090640985728,-38
599616090648674944,-41
599616090656364160,-29
599616090664053376,-16
599616090671742592,-12
599616090679431808,0
599616090687120949,14
599616090694810112,29
599616090702499328,46
599616090710188544,63
599616090717877760,77
599616090725566976,87
599616090733256192,87
599616090740945408,82
599616090748634624,67
599616090756323840,36
599616090764013056,-4
599616090771702272,-60
599616090779391488,-135
599616090787080704,-210
599616090794769920,-269
599616090802459136,-307
599616090810148352,-339
599616090817837568,-361
599616090825526656,-368
599616090833215872,-371
599616090840905088,-373
599616090848594304,-368
599616090856283520,-363
599616090863972736,-358
599616090871661952,-351
599616090879351168,-344
599616090887040384,-337
599616090894729600,-329
599616090902418816,-322
599616090910108032,-315
599616090917797248,-310
599616090925486464,-307
599616090933175680,-303
599616090940864896,-298
599616090948554112,-298
599616090956243328,-298
599616090963932544,-298
599616090971621760,-303
599616090979310976,-303
599616090987000192,-300
599616090994689408,-300
599616091002378624,-303
599616091010067840,-303
599616091017757056,-300
599616091025446272,-298
599616091033135488,-300
599616091040824704,-300
599616091048513920,-298
599616091056203136,-295
599616091063892352,-298
599616091071581568,-298
599616091079270656,-293
599616091086959872,-298
599616091094649088,-303
599616091102338304,-291
599616091110027520,-271
599616091117716736,-257
599616091125405952,-266
599616091133095168,-291
599616091140784384,-291
599616091148473600,-283
599616091156162816,-286
599616091163852032,-286
599616091171541248,-283
599616091179230464,-283
599616091186919680,-276
599616091194608896,-266
599616091202298112,-257
599616091209987328,-249
599616091217676544,-225
599616091225365760,-288
599616091233054976,-666
599616091240744192,-1234
599616091248433436,-1392
599616091256122624,-982
599616091263811840,-531
599616091271501056,-259
599616091279190272,-80
599616091286879488,-46
599616091294568704,-70
599616091302257920,-48
599616091309947136,-33
599616091317636352,-43
599616091325325568,-41
599616091333014784,-33
599616091340704000,-31
599616091348393216,-26
599616091356082432,-21
599616091363771648,-12
599616091371460864,-2
599616091379150080,7
599616091386839168,21
599616091394528384,36
599616091402217600,48
599616091409906816,63
599616091417596032,77
599616091425285248,84
599616091432974464,84
599616091440663680,82
599616091448352896,65
599616091456042112,33
599616091463731328,-7
599616091471420544,-67
599616091479109760,-145
599616091486798976,-218
599616091494488192,-271
599616091502177408,-310
599616091509866624,-339
599616091517555840,-356
599616091525245056,-366
599616091532934272,-366
599616091540623488,-363
599616091548312704,-361
599616091556001920,-356
599616091563691136,-351
599616091571380352,-344
599616091579069568,-334
599616091586758784,-327
599616091594448000,-322
599616091602137216,-317
599616091609826432,-310
599616091617515648,-307
599616091625204864,-305
599616091632894080,-300
599616091640583168,-295
599616091648272384,-293
599616091655961600,-295
599616091663650816,-293
599616091671340032,-293
599616091679029248,-291
599616091686718464,-291
599616091694407680,-295
599616091702096896,-293
599616091709786112,-293
599616091717475328,-293
599616091725164544,-293
599616091732853760,-291
599616091740542976,-288
599616091748232192,-291
599616091755921408,-295
599616091763610624,-293
599616091771299840,-288
599616091778989056,-291
599616091786678272,-295
599616091794367488,-283
599616091802056704,-259
599616091809745923,-247
599616091817435136,-264
599616091825124352,-288
599616091832813568,-288
599616091840502784,-283
599616091848192000,-288
599616091855881216,-288
599616091863570432,-281
599616091871259648,-278
599616091878948864,-276
599616091886638080,-271
599616091894327296,-266
599616091902016512,-259
599616091909705728,-220
599616091917394944,-254
599616091925084160,-630
599616091932773376,-1217
599616091940462592,-1375
599616091948151680,-953
599616091955840896,-509
599616091963530112,-247
599616091971219328,-80
599616091978908544,-53
599616091986597760,-80
599616091994286976,-58
599616092001976192,-38
599616092009665408,-48
599616092017354624,-48
599616092025043840,-33
599616092032733056,-33
599616092040422272,-31
599616092048111488,-21
599616092055800704,-12
599616092063489920,-2
599616092071179136,9
599616092078868352,24
599616092086557568,38
599616092094246784,55
599616092101936000,72
599616092109625216,82
599616092117314432,89
599616092125003648,92
599616092132692864,84
599616092140382080,70
599616092148071296,43
599616092155760512,-2
599616092163449728,-63
599616092171138944,-138
599616092178828160,-208
599616092186517376,-266
599616092194206592,-307
599616092201895680,-339
599616092209584896,-356
599616092217274112,-366
599616092224963328,-366
599616092232652544,-363
599616092240341760,-363
599616092248030976,-358
599616092255720192,-349
599616092263409408,-341
599616092271098624,-334
599616092278787840,-324
599616092286477056,-320
599616092294166272,-315
599616092301855488,-307
599616092309544704,-303
599616092317233920,-300
599616092324923136,-295
599616092332612352,-293
599616092340301568,-295
599616092347990784,-293
599616092355680000,-293
599616092363369216,-293
599616092371058410,-293
599616092378747776,-291
599616092386437120,-291
599616092394126336,-291
599616092401815680,-291
599616092409504896,-291
599616092417194240,-288
599616092424883456,-288
599616092432572800,-293
599616092440262016,-291
599616092447951360,-291
599616092455640576,-293
599616092463329920,-291
599616092471019136,-283
599616092478708480,-291
599616092486397696,-300
599616092494087040,-288
599616092501776256,-261
599616092509465600,-247
599616092517154816,-261
599616092524844160,-288
599616092532533376,-288
599616092540222720,-281
599616092547911936,-281
599616092555601280,-278
599616092563290496,-274
599616092570979840,-271
599616092578669056,-271
599616092586358400,-266
599616092594047616,-257
599616092601736960,-237
599616092609426176,-179
599616092617115520,-201
599616092624804736,-565
599616092632494080,-1166
599616092640183424,-1372
599616092647872640,-994
599616092655561984,-569
599616092663251200,-295
599616092670940544,-82
599616092678629760,-38
599616092686319104,-77
599616092694008320,-50
599616092701697664,-29
599616092709386880,-46
599616092717076224,-46
599616092724765440,-31
599616092732454784,-26
599616092740144000,-24
599616092747833344,-16
599616092755522560,-9
599616092763211904,2
599616092770901120,16
599616092778590464,26
599616092786279680,41
599616092793969024,58
599616092801658240,75
599616092809347584,89
599616092817036800,97
599616092824726144,92
599616092832415360,87
599616092840104704,75
599616092847793920,46
599616092855483264,2
599616092863172480,-55
599616092870861824,-126
599616092878551040,-196
599616092886240384,-257
599616092893929600,-300
599616092901618944,-329
599616092909308288,-349
599616092916997504,-358
599616092924686848,-363
599616092932375988,-363
599616092940065536,-361
599616092947755136,-351
599616092955444608,-341
599616092963134208,-334
599616092970823808,-329
599616092978513280,-324
599616092986202880,-315
599616092993892480,-312
599616093001582080,-307
599616093009271552,-303
599616093016961152,-300
599616093024650752,-298
599616093032340224,-293
599616093040029824,-293
599616093047719424,-293
599616093055408896,-293
599616093063098496,-291
599616093070788096,-291
599616093078477568,-291
599616093086167168,-293
599616093093856768,-291
599616093101546368,-291
599616093109235840,-291
599616093116925440,-288
599616093124615040,-286
599616093132304512,-288
599616093139994112,-288
599616093147683712,-286
599616093155373184,-283
599616093163062784,-276
599616093170752384,-283
599616093178441856,-293
599616093186131456,-281
599616093193821056,-259
599616093201510656,-247
599616093209200128,-261
599616093216889728,-286
599616093224579328,-283
599616093232268800,-274
599616093239958400,-276
599616093247648000,-276
599616093255337472,-269
599616093263027072,-269
599616093270716672,-269
599616093278406144,-257
599616093286095744,-237
599616093293785344,-210
599616093301474944,-189
599616093309164416,-320
599616093316854016,-780
599616093324543616,-1287
599616093332233088,-1285
599616093339922688,-856
599616093347612288,-492
599616093355301760,-230
599616093362991360,-46
599616093370680960,-43
599616093378370432,-72
599616093386060032,-38
599616093393749632,-29
599616093401439104,-46
599616093409128704,-33
599616093416818304,-24
599616093424507904,-29
599616093432197376,-24
599616093439886976,-12
599616093447576576,-4
599616093455266048,4
599616093462955648,19
599616093470645248,31
599616093478334720,46
599616093486024320,65
599616093493713906,80
599616093501403136,87
599616093509092352,94
599616093516781568,94
599616093524470784,84
599616093532160000,65
599616093539849216,36
599616093547538432,-14
599616093555227648,-80
599616093562916864,-152
599616093570606080,-223
599616093578295296,-276
599616093585984512,-310
599616093593673728,-337
599616093601362944,-354
599616093609052160,-361
599616093616741376,-361
599616093624430592,-358
599616093632119680,-358
599616093639808896,-354
599616093647498112,-346
599616093655187328,-337
599616093662876544,-327
599616093670565760,-320
599616093678254976,-312
599616093685944192,-307
599616093693633408,-305
599616093701322624,-300
599616093709011840,-293
599616093716701056,-288
599616093724390272,-288
599616093732079488,-286
599616093739768704,-283
599616093747457920,-283
599616093755147136,-283
599616093762836352,-283
599616093770525568,-286
599616093778214784,-286
599616093785904000,-286
599616093793593216,-286
599616093801282432,-283
599616093808971648,-283
599616093816660864,-281
599616093824350080,-281
599616093832039296,-283
599616093839728512,-281
599616093847417728,-281
599616093855106944,-281
599616093862796160,-276
599616093870485376,-278
599616093878174592,-286
599616093885863680,-276
599616093893552896,-257
599616093901242112,-240
599616093908931328,-247
599616093916620544,-274
599616093924309760,-278
599616093931998976,-269
599616093939688192,-269
599616093947377408,-274
599616093955066624,-269
599616093962755840,-264
599616093970445056,-264
599616093978134272,-259
599616093985823488,-242
599616093993512704,-230
599616094001201920,-213
599616094008891136,-278
599616094016580352,-623
599616094024269568,-1173
599616094031958784,-1394
599616094039648000,-1040
599616094047337216,-577
599616094055026393,-286
599616094062715520,-89
599616094070404608,-33
599616094078093696,-58
599616094085782784,-41
599616094093471872,-19
599616094101160832,-29
599616094108849920,-33
599616094116539008,-21
599616094124228096,-16
599616094131917184,-16
599616094139606272,-12
599616094147295360,-4
599616094154984448,2
599616094162673408,14
599616094170362496,29
599616094178051584,41
599616094185740672,55
599616094193429760,72
599616094201118848,87
599616094208807936,94
599616094216497024,99
599616094224186112,92
599616094231875072,75
599616094239564160,48
599616094247253248,4
599616094254942336,-53
599616094262631424,-121
599616094270320512,-194
599616094278009600,-254
599616094285698688,-295
599616094293387648,-322
599616094301076736,-339
599616094308765824,-349
599616094316454912,-351
599616094324144000,-351
599616094331833088,-349
599616094339522176,-341
599616094347211264,-337
599616094354900224,-334
599616094362589312,-329
599616094370278400,-320
599616094377967488,-315
599616094385656576,-310
599616094393345664,-303
599616094401034752,-298
599616094408723840,-293
599616094416412928,-291
599616094424101888,-288
599616094431790976,-288
599616094439480064,-286
599616094447169152,-283
599616094454858240,-283
599616094462547328,-283
599616094470236416,-283
599616094477925504,-281
599616094485614464,-281
599616094493303552,-283
599616094500992640,-283
599616094508681728,-286
599616094516370816,-288
599616094524059904,-288
599616094531748992,-286
599616094539438080,-283
599616094547127168,-286
599616094554816128,-283
599616094562505216,-281
599616094570194304,-286
599616094577883392,-288
599616094585572480,-271
599616094593261568,-249
599616094600950656,-240
599616094608639744,-257
599616094616328710,-278
599616094624018048,-278
599616094631707392,-271
599616094639396608,-274
599616094647085952,-274
599616094654775168,-269
599616094662464512,-266
599616094670153728,-264
599616094677843072,-259
599616094685532288,-254
599616094693221632,-244
599616094700910848,-208
599616094708600192,-257
599616094716289408,-640
599616094723978752,-1224
599616094731667968,-1367
599616094739357312,-940
599616094747046528,-499
599616094754735872,-235
599616094762425088,-70
599616094770114432,-46
599616094777803648,-63
599616094785492992,-41
599616094793182208,-31
599616094800871552,-38
599616094808560768,-33
599616094816250112,-21
599616094823939328,-21
599616094831628672,-19
599616094839317888,-9
599616094847007232,-2
599616094854696448,7
599616094862385792,21
599616094870075008,31
599616094877764352,43
599616094885453568,63
599616094893142912,77
599616094900832256,87
599616094908521472,97
599616094916210816,97
599616094923900032,89
599616094931589376,75
599616094939278592,46
599616094946967936,0
599616094954657152,-58
599616094962346496,-130
599616094970035712,-203
599616094977725056,-259
599616094985414272,-298
599616094993103616,-327
599616095000792832,-344
599616095008482176,-351
599616095016171392,-356
599616095023860736,-361
599616095031549952,-358
599616095039239296,-351
599616095046928512,-344
599616095054617856,-334
599616095062307072,-324
599616095069996416,-320
599616095077685632,-312
599616095085374976,-305
599616095093064192,-300
599616095100753536,-295
599616095108442752,-291
599616095116132096,-288
599616095123821312,-286
599616095131510656,-283
599616095139199872,-283
599616095146889216,-286
599616095154578432,-283
599616095162267776,-283
599616095169957120,-286
599616095177646284,-288
599616095185335680,-283
599616095193025024,-281
599616095200714240,-281
599616095208403584,-283
599616095216092800,-281
599616095223782144,-281
599616095231471360,-283
599616095239160704,-281
599616095246849920,-278
599616095254539264,-278
599616095262228480,-286
599616095269917824,-286
599616095277607040,-266
599616095285296384,-240
599616095292985600,-237
599616095300674944,-266
599616095308364160,-283
599616095316053504,-271
599616095323742720,-269
599616095331432064,-271
599616095339121280,-269
599616095346810624,-266
599616095354499840,-264
599616095362189184,-257
599616095369878400,-249
599616095377567744,-240
599616095385256960,-208
599616095392946304,-164
599616095400635520,-324
599616095408324864,-858
599616095416014080,-1355
599616095423703424,-1239
599616095431392640,-759
599616095439081984,-409
599616095446771200,-167
599616095454460544,-31
599616095462149888,-48
599616095469839104,-55
599616095477528448,-21
599616095485217664,-24
599616095492907008,-38
599616095500596224,-26
599616095508285568,-19
599616095515974784,-19
599616095523664128,-12
599616095531353344,-2
599616095539042688,2
599616095546731904,12
599616095554421248,29
599616095562110464,43
599616095569799808,58
599616095577489024,77
599616095585178368,92
599616095592867584,101
599616095600556928,109
599616095608246144,106
599616095615935488,97
599616095623624704,75
599616095631314048,38
599616095639003264,-9
599616095646692608,-75
599616095654381824,-155
599616095662071168,-223
599616095669760384,-271
599616095677449728,-310
599616095685138944,-334
599616095692828288,-349
599616095700517504,-354
599616095708206848,-354
599616095715896064,-354
599616095723585408,-351
599616095731274752,-341
599616095738963858,-332
599616095746653056,-324
599616095754342272,-320
599616095762031488,-312
599616095769720704,-305
599616095777409920,-300
599616095785099136,-295
599616095792788352,-288
599616095800477568,-286
599616095808166784,-283
599616095815856000,-283
599616095823545216,-283
599616095831234432,-281
599616095838923648,-278
599616095846612864,-281
599616095854302080,-286
599616095861991296,-286
599616095869680512,-281
599616095877369600,-283
599616095885058816,-288
599616095892748032,-286
599616095900437248,-283
599616095908126464,-286
599616095915815680,-278
599616095923504896,-271
599616095931194112,-286
599616095938883328,-288
599616095946572544,-274
599616095954261760,-257
599616095961950976,-249
599616095969640192,-269
599616095977329408,-288
599616095985018624,-281
599616095992707840,-276
599616096000397056,-278
599616096008086272,-276
599616096015775488,-271
599616096023464704,-271
599616096031153920,-271
599616096038843136,-259
599616096046532352,-235
599616096054221568,-198
599616096061910784,-172
599616096069600000,-341
599616096077289216,-858
599616096084978432,-1336
599616096092667648,-1244
599616096100356864,-795
599616096108046080,-463
599616096115735296,-201
599616096123424512,-29
599616096131113600,-43
599616096138802816,-67
599616096146492032,-31
599616096154181248,-26
599616096161870464,-38
599616096169559680,-29
599616096177248896,-21
599616096184938112,-26
599616096192627328,-19
599616096200316544,-4
599616096208005760,4
599616096215694976,12
599616096223384192,24
599616096231073408,38
599616096238762624,58
599616096246451840,72
599616096254141056,87
599616096261830272,99
599616096269519488,101
599616096277208704,97
599616096284897920,89
599616096292587136,70
599616096300276345,31
599616096307965312,-24
599616096315654272,-89
599616096323343232,-164
599616096331032064,-232
599616096338721024,-278
599616096346409984,-312
599616096354098944,-337
599616096361787904,-349
599616096369476736,-351
599616096377165696,-351
599616096384854656,-351
599616096392543616,-349
599616096400232576,-344
599616096407921408,-337
599616096415610368,-329
599616096423299328,-320
599616096430988288,-310
599616096438677120,-305
599616096446366080,-303
599616096454055040,-295
599616096461744000,-288
599616096469432960,-286
599616096477121792,-283
599616096484810752,-281
599616096492499712,-276
599616096500188672,-276
599616096507877632,-278
599616096515566464,-281
599616096523255424,-281
599616096530944384,-278
599616096538633344,-278
599616096546322304,-281
599616096554011136,-281
599616096561700096,-278
599616096569389056,-278
599616096577078016,-281
599616096584766976,-274
599616096592455808,-271
599616096600144768,-283
599616096607833728,-283
599616096615522688,-264
599616096623211648,-247
599616096630900480,-249
599616096638589440,-271
599616096646278400,-286
599616096653967360,-276
599616096661656192,-274
599616096669345152,-276
599616096677034112,-274
599616096684723072,-269
599616096692412032,-266
599616096700100864,-259
599616096707789824,-242
599616096715478784,-215
599616096723167744,-181
599616096730856704,-203
599616096738545536,-468
599616096746234496,-1016
599616096753923456,-1384
599616096761612416,-1159
599616096769301376,-686
599616096776990208,-356
599616096784679168,-123
599616096792368128,-19
599616096800057088,-46
599616096807746048,-43
599616096815434880,-14
599616096823123840,-19
599616096830812800,-24
599616096838501760,-14
599616096846190592,-12
599616096853879552,-12
599616096861568488,-2
599616096869257984,4
599616096876947456,12
599616096884636928,24
599616096892326400,36
599616096900016000,48
599616096907705472,63
599616096915394944,77
599616096923084416,92
599616096930773888,99
599616096938463360,101
599616096946152832,97
599616096953842432,84
599616096961531904,58
599616096969221376,16
599616096976910848,-41
599616096984600320,-113
599616096992289792,-186
599616096999979392,-244
599616097007668864,-288
599616097015358336,-322
599616097023047808,-339
599616097030737280,-346
599616097038426752,-354
599616097046116224,-356
599616097053805824,-354
599616097061495296,-349
599616097069184768,-341
599616097076874240,-332
599616097084563712,-327
599616097092253184,-320
599616097099942656,-312
599616097107632256,-307
599616097115321728,-300
599616097123011200,-293
599616097130700672,-291
599616097138390144,-288
599616097146079616,-283
599616097153769088,-281
599616097161458688,-281
599616097169148160,-281
599616097176837632,-278
599616097184527104,-281
599616097192216576,-281
599616097199906048,-278
599616097207595520,-281
599616097215285120,-281
599616097222974592,-281
599616097230664064,-281
599616097238353536,-281
599616097246043008,-283
599616097253732480,-283
599616097261422080,-276
599616097269111552,-278
599616097276801024,-286
599616097284490496,-276
599616097292179968,-254
599616097299869440,-240
599616097307558912,-254
599616097315248512,-278
599616097322937984,-283
599616097330627456,-274
599616097338316928,-276
599616097346006400,-276
599616097353695872,-271
599616097361385344,-266
599616097369074944,-264
599616097376764416,-259
599616097384453888,-252
599616097392143360,-240
599616097399832832,-208
599616097407522304,-254
599616097415211776,-630
599616097422901319,-1222
599616097430590592,-1401
599616097438279808,-979
599616097445969024,-502
599616097453658240,-232
599616097461347456,-72
599616097469036672,-41
599616097476725888,-63
599616097484415104,-43
599616097492104320,-29
599616097499793536,-36
599616097507482752,-31
599616097515171968,-24
599616097522861184,-24
599616097530550400,-19
599616097538239616,-12
599616097545928832,-7
599616097553618048,2
599616097561307136,16
599616097568996352,29
599616097576685568,43
599616097584374784,60
599616097592064000,77
599616097599753216,87
599616097607442432,94
599616097615131648,92
599616097622820864,84
599616097630510080,70
599616097638199296,43
599616097645888512,-2
599616097653577728,-67
599616097661266944,-138
599616097668956160,-206
599616097676645376,-264
599616097684334592,-303
599616097692023808,-327
599616097699713024,-344
599616097707402240,-351
599616097715091456,-354
599616097722780672,-351
599616097730469888,-346
599616097738159104,-344
599616097745848320,-337
599616097753537536,-329
599616097761226752,-322
599616097768915968,-315
599616097776605184,-307
599616097784294400,-300
599616097791983616,-300
599616097799672832,-298
599616097807362048,-291
599616097815051136,-286
599616097822740352,-281
599616097830429568,-278
599616097838118784,-281
599616097845808000,-283
599616097853497216,-281
599616097861186432,-278
599616097868875648,-281
599616097876564864,-283
599616097884254080,-281
599616097891943296,-281
599616097899632512,-281
599616097907321728,-283
599616097915010944,-286
599616097922700160,-283
599616097930389376,-281
599616097938078592,-286
599616097945767808,-283
599616097953457024,-264
599616097961146240,-240
599616097968835456,-237
599616097976524672,-259
599616097984213806,-281
599616097991902976,-278
599616097999592192,-274
599616098007281408,-276
599616098014970624,-274
599616098022659840,-269
599616098030349056,-266
599616098038038272,-264
599616098045727488,-261
599616098053416704,-264
599616098061105920,-240
599616098068795136,-167
599616098076484352,-244
599616098084173568,-742
599616098091862784,-1326
599616098099552000,-1324
599616098107241216,-843
599616098114930432,-446
599616098122619520,-191
599616098130308736,-48
599616098137997952,-50
599616098145687168,-63
599616098153376384,-33
599616098161065600,-29
599616098168754816,-36
599616098176444032,-26
599616098184133248,-21
599616098191822464,-21
599616098199511680,-12
599616098207200896,-2
599616098214890112,7
599616098222579328,19
599616098230268544,33
599616098237957760,46
599616098245646976,63
599616098253336192,77
599616098261025408,94
599616098268714624,104
599616098276403840,109
599616098284093056,104
599616098291782272,94
599616098299471488,75
599616098307160704,43
599616098314849920,-7
599616098322539136,-75
599616098330228352,-150
599616098337917568,-215
599616098345606784,-266
599616098353296000,-307
599616098360985216,-332
599616098368674432,-344
599616098376363520,-349
599616098384052736,-349
599616098391741952,-351
599616098399431168,-346
599616098407120384,-337
599616098414809600,-327
599616098422498816,-322
599616098430188032,-315
599616098437877248,-310
599616098445566464,-303
599616098453255680,-293
599616098460944896,-288
599616098468634112,-281
599616098476323328,-278
599616098484012544,-281
599616098491701760,-281
599616098499390976,-276
599616098507080192,-274
599616098514769408,-276
599616098522458624,-278
599616098530147840,-276
599616098537837056,-274
599616098545526293,-276
599616098553215488,-281
599616098560904704,-281
599616098568593920,-281
599616098576283136,-281
599616098583972352,-276
599616098591661568,-278
599616098599350784,-278
599616098607040000,-283
599616098614729216,-286
599616098622418432,-271
599616098630107648,-247
599616098637796864,-232
599616098645486080,-244
599616098653175296,-271
599616098660864512,-276
599616098668553728,-269
599616098676242944,-269
599616098683932032,-269
599616098691621248,-264
599616098699310464,-259
599616098706999680,-257
599616098714688896,-254
599616098722378112,-249
599616098730067328,-230
599616098737756544,-160
599616098745445760,-155
599616098753134976,-514
599616098760824192,-1142
599616098768513408,-1379
599616098776202624,-1011
599616098783891840,-584
599616098791581056,-303
599616098799270272,-67
599616098806959488,-14
599616098814648704,-63
599616098822337920,-38
599616098830027136,-14
599616098837716352,-29
599616098845405568,-26
599616098853094784,-12
599616098860784000,-12
599616098868473216,-4
599616098876162432,2
599616098883851648,9
599616098891540864,21
599616098899230080,33
599616098906919296,48
599616098914608512,63
599616098922297728,80
599616098929986944,92
599616098937676160,109
599616098945365248,118
599616098953054464,113
599616098960743680,104
599616098968432896,89
599616098976122112,60
599616098983811328,19
599616098991500544,-41
599616098999189760,-118
599616099006878976,-191
599616099014568192,-247
599616099022257408,-288
599616099029946624,-320
599616099037635840,-339
599616099045325056,-344
599616099053014272,-351
599616099060703488,-354
599616099068392704,-351
599616099076081920,-344
599616099083771136,-334
599616099091460352,-329
599616099099149568,-320
599616099106838784,-310
599616099114528000,-300
599616099122217216,-295
599616099129906432,-291
599616099137595648,-288
599616099145284864,-286
599616099152974080,-278
599616099160663296,-276
599616099168352512,-276
599616099176041728,-278
599616099183730944,-278
599616099191420160,-276
599616099199109376,-276
599616099206798592,-278
599616099214487808,-276
599616099222177024,-276
599616099229866240,-276
599616099237555456,-276
599616099245244544,-274
599616099252933760,-269
599616099260622976,-266
599616099268312192,-274
599616099276001408,-283
599616099283690624,-271
599616099291379840,-247
599616099299069056,-235
599616099306758272,-257
599616099314447488,-283
599616099322136704,-276
599616099329825920,-264
599616099337515136,-266
599616099345204352,-271
599616099352893568,-266
599616099360582784,-261
599616099368272000,-259
599616099375961216,-249
599616099383650432,-225
599616099391339648,-189
599616099399028864,-162
599616099406718080,-305
599616099414407296,-785
599616099422096512,-1292
599616099429785728,-1265
599616099437474944,-831
599616099445164160,-475
599616099452853376,-213
599616099460542592,-29
599616099468231808,-31
599616099475921024,-65
599616099483610240,-26
599616099491299456,-14
599616099498988544,-33
599616099506677760,-29
599616099514366976,-16
599616099522056192,-14
599616099529745408,-12
599616099537434624,-4
599616099545123840,7
599616099552813056,16
599616099560502272,29
599616099568191488,41
599616099575880704,58
599616099583569920,77
599616099591259136,92
599616099598948352,99
599616099606637568,106
599616099614326784,106
599616099622016000,97
599616099629705216,75
599616099637394432,38
599616099645083648,-16
599616099652772864,-87
599616099660462080,-160
599616099668151271,-227
599616099675840256,-276
599616099683529216,-305
599616099691218176,-329
599616099698907008,-341
599616099706595968,-344
599616099714284928,-344
599616099721973888,-346
599616099729662848,-341
599616099737351680,-332
599616099745040640,-324
599616099752729600,-320
599616099760418560,-312
599616099768107520,-305
599616099775796352,-295
599616099783485312,-291
599616099791174272,-286
599616099798863232,-278
599616099806552064,-274
599616099814241024,-276
599616099821929984,-274
599616099829618944,-269
599616099837307904,-266
599616099844996736,-266
599616099852685696,-266
599616099860374656,-266
599616099868063616,-266
599616099875752576,-266
599616099883441408,-266
599616099891130368,-266
599616099898819328,-266
599616099906508288,-259
599616099914197248,-254
599616099921886080,-266
599616099929575040,-271
599616099937264000,-257
599616099944952960,-237
599616099952641920,-240
599616099960330752,-264
599616099968019712,-278
599616099975708672,-271
599616099983397632,-264
599616099991086592,-269
599616099998775424,-266
599616100006464384,-261
599616100014153344,-261
599616100021842304,-257
599616100029531136,-240
599616100037220096,-215
599616100044909056,-186
599616100052598016,-208
599616100060286976,-455
599616100067975808,-989
599616100075664768,-1372
599616100083353728,-1171
599616100091042688,-700
599616100098731648,-368
599616100106420480,-133
599616100114109440,-21
599616100121798400,-48
599616100129487360,-53
599616100137176320,-21
599616100144865152,-26
599616100152554112,-31
599616100160243072,-19
599616100167932032,-16
599616100175620992,-19
599616100183309824,-9
599616100190998784,2
599616100198687744,12
599616100206376704,21
599616100214065536,33
599616100221754496,48
599616100229443414,65
599616100237132800,82
599616100244822144,99
599616100252511360,111
599616100260200704,111
599616100267889920,104
599616100275579264,92
599616100283268480,67
599616100290957824,21
599616100298647040,-38
599616100306336384,-111
599616100314025600,-189
599616100321714944,-244
599616100329404160,-283
599616100337093504,-317
599616100344782720,-332
599616100352472064,-337
599616100360161280,-341
599616100367850624,-341
599616100375539840,-337
599616100383229184,-332
599616100390918400,-327
599616100398607744,-320
599616100406296960,-312
599616100413986304,-305
599616100421675520,-298
599616100429364864,-291
599616100437054080,-286
599616100444743424,-283
599616100452432640,-281
599616100460121984,-274
599616100467811200,-269
599616100475500544,-269
599616100483189760,-264
599616100490879104,-264
599616100498568320,-264
599616100506257664,-266
599616100513947008,-266
599616100521636224,-269
599616100529325568,-269
599616100537014784,-269
599616100544704128,-269
599616100552393344,-269
599616100560082688,-269
599616100567771904,-271
599616100575461248,-269
599616100583150464,-264
599616100590839808,-269
599616100598529024,-276
599616100606218368,-264
599616100613907584,-244
599616100621596928,-235
599616100629286144,-249
599616100636975488,-274
599616100644664704,-271
599616100652354048,-261
599616100660043264,-264
599616100667732608,-266
599616100675421824,-259
599616100683111168,-254
599616100690800384,-252
599616100698489728,-242
599616100706178944,-232
599616100713868288,-218
599616100721557504,-201
599616100729246848,-305
599616100736936064,-734
599616100744625408,-1285
599616100752314624,-1365
599616100760003968,-902
599616100767693184,-448
599616100775382528,-198
599616100783071872,-48
599616100790760988,-21
599616100798450304,-41
599616100806139648,-24
599616100813828864,-14
599616100821518208,-21
599616100829207424,-19
599616100836896768,-12
599616100844585984,-12
599616100852275328,-9
599616100859964544,0
599616100867653888,9
599616100875343104,16
599616100883032448,29
599616100890721664,41
599616100898411008,53
599616100906100224,67
599616100913789568,87
599616100921478784,99
599616100929168128,104
599616100936857344,101
599616100944546688,92
599616100952235904,72
599616100959925248,41
599616100967614464,-7
599616100975303808,-75
599616100982993024,-150
599616100990682368,-218
599616100998371584,-266
599616101006060928,-298
599616101013750144,-322
599616101021439488,-337
599616101029128704,-344
599616101036818048,-344
599616101044507264,-341
599616101052196608,-337
599616101059885824,-329
599616101067575168,-324
599616101075264512,-320
599616101082953728,-312
599616101090643072,-307
599616101098332288,-300
599616101106021632,-293
599616101113710848,-291
599616101121400192,-288
599616101129089408,-283
599616101136778752,-276
599616101144467968,-276
599616101152157312,-274
599616101159846528,-269
599616101167535872,-269
599616101175225088,-271
599616101182914432,-271
599616101190603648,-269
599616101198292992,-269
599616101205982208,-271
599616101213671552,-271
599616101221360768,-269
599616101229050112,-266
599616101236739328,-266
599616101244428672,-269
599616101252117888,-271
599616101259807232,-271
599616101267496448,-266
599616101275185792,-266
599616101282875008,-274
599616101290564352,-266
599616101298253568,-247
599616101305942912,-230
599616101313632128,-235
599616101321321472,-259
599616101329010688,-269
599616101336700032,-259
599616101344389376,-261
599616101352078562,-261
599616101359767936,-257
599616101367457280,-252
599616101375146496,-252
599616101382835840,-247
599616101390525056,-240
599616101398214400,-235
599616101405903616,-206
599616101413592960,-201
599616101421282176,-468
599616101428971520,-1059
599616101436660736,-1401
599616101444350080,-1081
599616101452039296,-572
599616101459728640,-271
599616101467417856,-87
599616101475107200,-24
599616101482796416,-48
599616101490485760,-36
599616101498174976,-14
599616101505864320,-24
599616101513553536,-24
599616101521242880,-9
599616101528932096,-9
599616101536621440,-7
599616101544310656,2
599616101552000000,12
599616101559689216,19
599616101567378560,29
599616101575067776,38
599616101582757120,50
599616101590446336,65
599616101598135680,82
599616101605824896,97
599616101613514240,104
599616101621203456,106
599616101628892800,101
599616101636582144,84
599616101644271360,58
599616101651960704,21
599616101659649920,-36
599616101667339264,-111
599616101675028480,-181
599616101682717824,-237
599616101690407040,-281
599616101698096384,-310
599616101705785600,-327
599616101713474944,-339
599616101721164160,-341
599616101728853504,-339
599616101736542720,-337
599616101744232064,-332
599616101751921280,-324
599616101759610624,-317
599616101767299840,-310
599616101774989184,-303
599616101782678400,-293
599616101790367744,-291
599616101798056960,-286
599616101805746304,-281
599616101813435520,-278
599616101821124864,-271
599616101828814080,-269
599616101836503424,-269
599616101844192640,-266
599616101851881984,-264
599616101859571200,-266
599616101867260544,-266
599616101874949760,-266
599616101882639104,-266
599616101890328320,-269
599616101898017664,-269
599616101905707008,-266
599616101913396136,-264
599616101921085440,-264
599616101928774784,-264
599616101936464000,-264
599616101944153344,-266
599616101951842560,-269
599616101959531904,-264
599616101967221120,-264
599616101974910464,-274
599616101982599680,-269
599616101990289024,-244
599616101997978240,-225
599616102005667584,-230
599616102013356800,-254
599616102021046144,-266
599616102028735360,-261
599616102036424704,-259
599616102044113920,-259
599616102051803264,-254
599616102059492480,-254
599616102067181824,-252
599616102074871040,-244
599616102082560384,-240
599616102090249600,-232
599616102097938944,-196
599616102105628160,-162
599616102113317504,-375
599616102121006720,-955
599616102128696064,-1382
599616102136385280,-1151
599616102144074624,-652
599616102151763840,-322
599616102159453184,-104
599616102167142400,-14
599616102174831744,-41
599616102182520960,-31
599616102190210304,-4
599616102197899648,-14
599616102205588864,-16
599616102213278208,-2
599616102220967424,0
599616102228656768,2
599616102236345984,12
599616102244035328,21
599616102251724544,29
599616102259413888,41
599616102267103104,55
599616102274792448,70
599616102282481664,84
599616102290171008,97
599616102297860224,111
599616102305549568,123
599616102313238784,123
599616102320928128,118
599616102328617344,106
599616102336306688,84
599616102343995904,46
599616102351685248,-7
599616102359374464,-77
599616102367063808,-157
599616102374753024,-218
599616102382442368,-261
599616102390131584,-295
599616102397820928,-317
599616102405510144,-327
599616102413199488,-334
599616102420888704,-337
599616102428578048,-337
599616102436267264,-329
599616102443956608,-320
599616102451645824,-315
599616102459335168,-307
599616102467024512,-298
599616102474713710,-291
599616102482402560,-281
599616102490091392,-276
599616102497780224,-274
599616102505469184,-274
599616102513158016,-269
599616102520846848,-269
599616102528535680,-266
599616102536224640,-264
599616102543913472,-264
599616102551602304,-261
599616102559291136,-264
599616102566980096,-264
599616102574668928,-266
599616102582357760,-266
599616102590046592,-269
599616102597735552,-269
599616102605424384,-269
599616102613113216,-266
599616102620802048,-264
599616102628491008,-261
599616102636179840,-261
599616102643868672,-257
599616102651557504,-257
599616102659246464,-264
599616102666935296,-264
599616102674624128,-249
599616102682312960,-232
599616102690001920,-227
599616102697690752,-247
599616102705379584,-261
599616102713068416,-257
599616102720757376,-249
599616102728446208,-254
599616102736135040,-252
599616102743823872,-247
599616102751512832,-247
599616102759201664,-244
599616102766890496,-232
599616102774579328,-206
599616102782268288,-172
599616102789957120,-150
599616102797645952,-317
599616102805334784,-819
599616102813023744,-1290
599616102820712576,-1205
599616102828401408,-780
599616102836090240,-460
599616102843779200,-194
599616102851468032,-7
599616102859156864,-21
599616102866845696,-53
599616102874534656,-12
599616102882223488,-4
599616102889912320,-21
599616102897601152,-12
599616102905290112,0
599616102912978944,-4
599616102920667776,0
599616102928356608,12
599616102936045568,19
599616102943734400,26
599616102951423232,41
599616102959112064,58
599616102966801024,70
599616102974489856,87
599616102982178688,101
599616102989867520,113
599616102997556480,113
599616103005245312,113
599616103012934144,104
599616103020622976,80
599616103028311936,46
599616103036000766,-4
599616103043690112,-77
599616103051379456,-155
599616103059068672,-215
599616103066758016,-261
599616103074447232,-293
599616103082136576,-312
599616103089825792,-327
599616103097515136,-334
599616103105204352,-337
599616103112893696,-332
599616103120582912,-324
599616103128272256,-322
599616103135961472,-320
599616103143650816,-310
599616103151340032,-303
599616103159029376,-300
599616103166718592,-293
599616103174407936,-288
599616103182097152,-278
599616103189786496,-271
599616103197475712,-269
599616103205165056,-269
599616103212854272,-266
599616103220543616,-264
599616103228232832,-261
599616103235922176,-261
599616103243611392,-264
599616103251300736,-264
599616103258989952,-261
599616103266679296,-261
599616103274368512,-264
599616103282057856,-264
599616103289747072,-259
599616103297436416,-254
599616103305125632,-254
599616103312814976,-247
599616103320504320,-247
599616103328193536,-264
599616103335882880,-261
599616103343572096,-240
599616103351261440,-227
599616103358950656,-237
599616103366640000,-257
599616103374329216,-259
599616103382018560,-254
599616103389707776,-259
599616103397397120,-259
599616103405086336,-252
599616103412775680,-247
599616103420464896,-244
599616103428154240,-235
599616103435843456,-208
599616103443532800,-179
599616103451222016,-167
599616103458911360,-276
599616103466600576,-649
599616103474289920,-1149
599616103481979136,-1273
599616103489668480,-902
599616103497357696,-518
599616103505047040,-278
599616103512736256,-67
599616103520425600,-9
599616103528114816,-55
599616103535804160,-38
599616103543493376,-9
599616103551182720,-26
599616103558871936,-31
599616103566561280,-19
599616103574250496,-16
599616103581939840,-14
599616103589629184,-4
599616103597318340,2
599616103605007744,7
599616103612697088,19
599616103620386304,33
599616103628075648,46
599616103635764864,63
599616103643454208,80
599616103651143424,92
599616103658832768,101
599616103666521984,104
599616103674211328,97
599616103681900544,80
599616103689589888,46
599616103697279104,-2
599616103704968448,-63
599616103712657664,-140
599616103720347008,-206
599616103728036224,-254
599616103735725568,-286
599616103743414784,-310
599616103751104128,-322
599616103758793344,-324
599616103766482688,-324
599616103774171904,-324
599616103781861248,-320
599616103789550464,-315
599616103797239808,-312
599616103804929024,-305
599616103812618368,-298
599616103820307584,-291
599616103827996928,-286
599616103835686144,-281
599616103843375488,-278
599616103851064704,-271
599616103858754048,-264
599616103866443264,-261
599616103874132608,-261
599616103881821952,-257
599616103889511168,-257
599616103897200512,-257
599616103904889728,-254
599616103912579072,-254
599616103920268288,-259
599616103927957632,-259
599616103935646848,-257
599616103943336192,-254
599616103951025408,-257
599616103958714752,-257
599616103966403968,-247
599616103974093312,-242
599616103981782528,-257
599616103989471872,-259
599616103997161088,-247
599616104004850432,-230
599616104012539648,-227
599616104020228992,-247
599616104027918208,-264
599616104035607552,-259
599616104043296768,-254
599616104050986112,-257
599616104058675328,-254
599616104066364672,-249
599616104074053888,-247
599616104081743232,-242
599616104089432448,-227
599616104097121792,-210
599616104104811008,-191
599616104112500352,-208
599616104120189568,-419
599616104127878912,-914
599616104135568128,-1326
599616104143257472,-1190
599616104150946816,-725
599616104158635914,-375
599616104166325248,-147
599616104174014592,-19
599616104181703808,-31
599616104189393152,-46
599616104197082368,-14
599616104204771712,-12
599616104212460928,-21
599616104220150272,-14
599616104227839488,-9
599616104235528832,-9
599616104243218048,-2
599616104250907392,4
599616104258596608,12
599616104266285952,21
599616104273975168,33
599616104281664512,46
599616104289353728,63
599616104297043072,77
599616104304732288,89
599616104312421632,101
599616104320110848,109
599616104327800192,104
599616104335489408,94
599616104343178752,70
599616104350867968,31
599616104358557312,-24
599616104366246528,-97
599616104373935872,-167
599616104381625088,-223
599616104389314432,-266
599616104397003648,-295
599616104404692992,-310
599616104412382208,-320
599616104420071552,-324
599616104427760768,-322
599616104435450112,-322
599616104443139456,-322
599616104450828672,-315
599616104458518016,-307
599616104466207232,-300
599616104473896576,-293
599616104481585792,-286
599616104489275136,-281
599616104496964352,-278
599616104504653696,-271
599616104512342912,-266
599616104520032256,-261
599616104527721472,-261
599616104535410816,-259
599616104543100032,-257
599616104550789376,-257
599616104558478592,-254
599616104566167936,-254
599616104573857152,-254
599616104581546496,-257
599616104589235712,-257
599616104596925056,-257
599616104604614272,-259
599616104612303616,-261
599616104619992832,-257
599616104627682176,-252
599616104635371392,-259
599616104643060736,-266
599616104650749952,-257
599616104658439296,-235
599616104666128512,-223
599616104673817856,-242
599616104681507072,-264
599616104689196416,-261
599616104696885632,-252
599616104704574976,-254
599616104712264320,-257
599616104719953488,-252
599616104727642880,-249
599616104735332224,-244
599616104743021440,-235
599616104750710784,-220
599616104758400000,-201
599616104766089344,-189
599616104773778560,-293
599616104781467904,-693
599616104789157120,-1229
599616104796846464,-1353
599616104804535680,-933
599616104812225024,-482
599616104819914240,-213
599616104827603584,-46
599616104835292800,-12
599616104842982144,-33
599616104850671360,-16
599616104858360704,-4
599616104866049920,-14
599616104873739264,-9
599616104881428480,-2
599616104889117824,-2
599616104896807040,2
599616104904496384,12
599616104912185600,19
599616104919874944,26
599616104927564160,38
599616104935253504,50
599616104942942720,63
599616104950632064,80
599616104958321280,97
599616104966010624,109
599616104973699840,113
599616104981389184,111
599616104989078400,104
599616104996767744,84
599616105004457088,53
599616105012146304,4
599616105019835648,-58
599616105027524864,-133
599616105035214208,-201
599616105042903424,-249
599616105050592768,-281
599616105058281984,-303
599616105065971328,-317
599616105073660544,-324
599616105081349888,-324
599616105089039104,-322
599616105096728448,-320
599616105104417664,-315
599616105112107008,-310
599616105119796224,-305
599616105127485568,-298
599616105135174784,-291
599616105142864128,-283
599616105150553344,-278
599616105158242688,-274
599616105165931904,-269
599616105173621248,-266
599616105181310464,-261
599616105188999808,-259
599616105196689024,-259
599616105204378368,-257
599616105212067584,-254
599616105219756928,-257
599616105227446144,-259
599616105235135488,-257
599616105242824704,-257
599616105250514048,-254
599616105258203264,-254
599616105265892608,-254
599616105273581952,-257
599616105281271062,-259
599616105288960384,-252
599616105296649728,-249
599616105304338944,-259
599616105312028288,-259
599616105319717504,-240
599616105327406848,-218
599616105335096064,-218
599616105342785408,-247
599616105350474624,-261
599616105358163968,-249
599616105365853184,-247
599616105373542528,-252
599616105381231744,-247
599616105388921088,-242
599616105396610304,-242
599616105404299648,-242
599616105411988864,-232
599616105419678208,-215
599616105427367424,-198
599616105435056768,-206
599616105442745984,-431
599616105450435328,-979
599616105458124544,-1394
599616105465813888,-1168
599616105473503104,-642
599616105481192448,-300
599616105488881664,-104
599616105496571008,-12
599616105504260224,-24
599616105511949568,-24
599616105519638784,-2
599616105527328128,-2
599616105535017344,-7
599616105542706688,0
599616105550395904,4
599616105558085248,7
599616105565774592,14
599616105573463808,21
599616105581153152,29
599616105588842368,38
599616105596531712,48
599616105604220928,65
599616105611910272,80
599616105619599488,87
599616105627288832,99
599616105634978048,109
599616105642667392,113
599616105650356608,106
599616105658045952,94
599616105665735168,70
599616105673424512,31
599616105681113728,-24
599616105688803072,-94
599616105696492288,-164
599616105704181632,-223
599616105711870848,-266
599616105719560192,-295
599616105727249408,-315
599616105734938752,-322
599616105742627968,-322
599616105750317312,-322
599616105758006528,-320
599616105765695872,-317
599616105773385088,-310
599616105781074432,-300
599616105788763648,-293
599616105796452992,-288
599616105804142208,-283
599616105811831552,-278
599616105819520768,-274
599616105827210112,-269
599616105834899456,-261
599616105842588636,-259
599616105850277504,-261
599616105857966336,-259
599616105865655168,-257
599616105873344128,-257
599616105881032960,-257
599616105888721792,-252
599616105896410624,-252
599616105904099584,-257
599616105911788416,-259
599616105919477248,-257
599616105927166080,-257
599616105934855040,-259
599616105942543872,-261
599616105950232704,-254
599616105957921536,-252
599616105965610496,-266
599616105973299328,-259
599616105980988160,-235
599616105988676992,-215
599616105996365952,-218
599616106004054784,-244
599616106011743616,-259
599616106019432448,-249
599616106027121408,-247
599616106034810240,-249
599616106042499072,-247
599616106050187904,-242
599616106057876864,-237
599616106065565696,-232
599616106073254528,-230
599616106080943360,-215
599616106088632320,-164
599616106096321152,-143
599616106104009984,-397
599616106111698816,-991
599616106119387776,-1367
599616106127076608,-1093
599616106134765440,-613
599616106142454272,-312
599616106150143232,-92
599616106157832064,0
599616106165520896,-36
599616106173209728,-29
599616106180898688,0
599616106188587520,-9
599616106196276352,-9
599616106203965184,2
599616106211654144,4
599616106219342976,4
599616106227031808,16
599616106234720640,26
599616106242409600,33
599616106250098432,46
599616106257787264,60
599616106265476096,75
599616106273165056,89
599616106280853888,104
599616106288542720,118
599616106296231552,123
599616106303920512,126
599616106311609344,121
599616106319298176,101
599616106326987008,77
599616106334675968,36
599616106342364800,-24
599616106350053632,-99
599616106357742464,-169
599616106365431424,-225
599616106373120256,-269
599616106380809088,-298
599616106388497920,-315
599616106396186880,-320
599616106403875692,-320
599616106411565056,-322
599616106419254400,-324
599616106426943616,-315
599616106434632960,-305
599616106442322176,-300
599616106450011520,-293
599616106457700736,-283
599616106465390080,-276
599616106473079296,-276
599616106480768640,-269
599616106488457856,-261
599616106496147200,-257
599616106503836416,-259
599616106511525760,-259
599616106519214976,-257
599616106526904320,-254
599616106534593536,-254
599616106542282880,-249
599616106549972096,-249
599616106557661440,-254
599616106565350656,-259
599616106573040000,-257
599616106580729216,-249
599616106588418560,-244
599616106596107776,-240
599616106603797120,-249
599616106611486336,-264
599616106619175680,-252
599616106626864896,-232
599616106634554240,-227
599616106642243456,-242
599616106649932800,-259
599616106657622016,-261
599616106665311360,-257
599616106673000576,-254
599616106680689920,-249
599616106688379264,-247
599616106696068480,-247
599616106703757824,-242
599616106711447040,-232
599616106719136384,-213
599616106726825600,-177
599616106734514944,-157
599616106742204160,-315
599616106749893504,-795
599616106757582720,-1275
599616106765272064,-1222
599616106772961280,-785
599616106780650624,-453
599616106788339840,-203
599616106796029184,-14
599616106803718400,-19
599616106811407744,-50
599616106819096960,-12
599616106826786304,-4
599616106834475520,-21
599616106842164864,-14
599616106849854080,-7
599616106857543424,-7
599616106865232640,2
599616106872921984,12
599616106880611200,12
599616106888300544,24
599616106895989760,46
599616106903679104,58
599616106911368320,67
599616106919057664,84
599616106926746880,104
599616106934436224,113
599616106942125440,116
599616106949814784,116
599616106957504128,104
599616106965193266,77
599616106972882560,43
599616106980571904,-12
599616106988261120,-89
599616106995950464,-164
599616107003639680,-218
599616107011329024,-261
599616107019018240,-293
599616107026707584,-310
599616107034396800,-320
599616107042086144,-324
599616107049775360,-320
599616107057464704,-315
599616107065153920,-317
599616107072843264,-312
599616107080532480,-300
599616107088221824,-298
599616107095911040,-291
599616107103600384,-281
599616107111289600,-278
599616107118978944,-274
599616107126668160,-264
599616107134357504,-257
599616107142046720,-257
599616107149736064,-257
599616107157425280,-249
599616107165114624,-240
599616107172803840,-240
599616107180493184,-240
599616107188182400,-232
599616107195871744,-232
599616107203560960,-235
599616107211250304,-230
599616107218939520,-220
599616107226628864,-213
599616107234318080,-208
599616107242007424,-218
599616107249696768,-225
599616107257385984,-218
599616107265075328,-210
599616107272764544,-203
599616107280453888,-210
599616107288143104,-240
599616107295832448,-257
599616107303521664,-244
599616107311211008,-232
599616107318900224,-237
599616107326589568,-242
599616107334278784,-237
599616107341968128,-237
599616107349657344,-235
599616107357346688,-210
599616107365035904,-179
599616107372725248,-184
599616107380414464,-361
599616107388103808,-814
599616107395793024,-1239
599616107403482368,-1161
599616107411171584,-737
599616107418860928,-419
599616107426550144,-198
599616107434239488,-41
599616107441928704,-41
599616107449618048,-70
599616107457307264,-31
599616107464996608,-12
599616107472685824,-29
599616107480375168,-29
599616107488064384,-21
599616107495753728,-21
599616107503442944,-7
599616107511132288,2
599616107518821632,-9
599616107526510840,-2
599616107534199808,26
599616107541888768,43
599616107549577856,50
599616107557266816,67
599616107564955776,87
599616107572644864,89
599616107580333824,92
599616107588022784,92
599616107595711872,72
599616107603400832,50
599616107611089792,29
599616107618778880,-29
599616107626467840,-106
599616107634156800,-164
599616107641845888,-213
599616107649534848,-252
599616107657223808,-274
599616107664912896,-291
599616107672601856,-300
599616107680290816,-293
599616107687979904,-288
599616107695668864,-291
599616107703357824,-281
599616107711046912,-264
599616107718735872,-264
599616107726424832,-266
