599621930634662383,6
599621930642349056,13
599621930650035712,13
599621930657722496,18
599621930665409152,23
599621930673095808,25
599621930680782592,30
599621930688469248,39
599621930696156032,43
599621930703842688,50
599621930711529344,57
599621930719216128,67
599621930726902784,76
599621930734589440,87
599621930742276224,97
599621930749962880,106
599621930757649664,115
599621930765336320,120
599621930773022976,120
599621930780709760,110
599621930788396416,90
599621930796083072,60
599621930803769856,30
599621930811456512,4
599621930819143296,-16
599621930826829952,-32
599621930834516608,-41
599621930842203392,-46
599621930849890048,-48
599621930857576704,-46
599621930865263488,-43
599621930872950144,-41
599621930880636928,-36
599621930888323584,-34
599621930896010240,-32
599621930903697024,-30
599621930911383680,-25
599621930919070336,-23
599621930926757120,-20
599621930934443776,-20
599621930942130560,-18
599621930949817216,-16
599621930957503872,-13
599621930965190656,-11
599621930972877312,-9
599621930980563968,-6
599621930988250752,-4
599621930995937408,-4
599621931003624192,-2
599621931011310848,0
599621931018997504,0
599621931026684288,2
599621931034370944,2
599621931042057600,2
599621931049744384,4
599621931057431040,4
599621931065117824,6
599621931072804480,6
599621931080491136,6
599621931088177920,6
599621931095864576,9
599621931103551232,9
599621931111238016,9
599621931118924672,9
599621931126611456,9
599621931134298112,9
599621931141984768,11
599621931149671552,11
599621931157358208,11
599621931165044864,11
599621931172731648,11
599621931180418304,11
599621931188105088,11
599621931195791766,13
599621931203478144,13
599621931211164544,13
599621931218850816,13
599621931226537216,13
599621931234223616,16
599621931241909888,13
599621931249596288,13
599621931257282688,16
599621931264968960,16
599621931272655360,16
599621931280341760,16
599621931288028032,18
599621931295714432,18
599621931303400704,18
599621931311087104,18
599621931318773504,18
599621931326459776,18
599621931334146176,18
599621931341832576,20
599621931349518848,20
599621931357205248,18
599621931364891648,16
599621931372577920,16
599621931380264320,13
599621931387950720,9
599621931395636992,13
599621931403323392,34
599621931411009792,55
599621931418696064,53
599621931426382464,53
599621931434068864,55
599621931441755136,41
599621931449441536,23
599621931457127936,16
599621931464814208,18
599621931472500608,20
599621931480186880,18
599621931487873280,16
599621931495559680,16
599621931503245952,18
599621931510932352,18
599621931518618752,18
599621931526305024,13
599621931533991424,-36
599621931541677824,-161
599621931549364096,-224
599621931557050496,0
599621931564736896,499
599621931572423168,912
599621931580109568,804
599621931587795968,265
599621931595482240,-78
599621931603168640,-73
599621931610855040,-60
599621931618541312,-60
599621931626227712,-6
599621931633914112,-4
599621931641600384,-34
599621931649286784,-18
599621931656973056,-2
599621931664659456,-9
599621931672345856,-4
599621931680032128,2
599621931687718528,4
599621931695404928,6
599621931703091200,13
599621931710777600,16
599621931718464000,18
599621931726150272,23
599621931733836672,30
599621931741523072,34
599621931749209344,41
599621931756895714,46
599621931764582400,50
599621931772269056,60
599621931779955712,67
599621931787642240,73
599621931795328896,85
599621931803015552,97
599621931810702208,106
599621931818388864,115
599621931826075520,120
599621931833762048,120
599621931841448704,115
599621931849135360,97
599621931856822016,69
599621931864508672,39
599621931872195328,11
599621931879881856,-11
599621931887568512,-25
599621931895255168,-36
599621931902941824,-43
599621931910628480,-46
599621931918315136,-43
599621931926001664,-41
599621931933688320,-41
599621931941374976,-36
599621931949061632,-34
599621931956748288,-32
599621931964434944,-30
599621931972121472,-27
599621931979808128,-25
599621931987494784,-23
599621931995181440,-20
599621932002868096,-18
599621932010554752,-16
599621932018241280,-13
599621932025927936,-11
599621932033614592,-9
599621932041301248,-9
599621932048987904,-6
599621932056674560,-4
599621932064361088,-2
599621932072047744,2
599621932079734400,2
599621932087421056,0
599621932095107712,2
599621932102794240,4
599621932110480896,4
599621932118167552,4
599621932125854208,4
599621932133540864,6
599621932141227520,6
599621932148914048,6
599621932156600704,6
599621932164287360,6
599621932171974016,9
599621932179660672,6
599621932187347328,6
599621932195033856,9
599621932202720512,9
599621932210407168,6
599621932218093824,6
599621932225780480,9
599621932233467136,9
599621932241153664,9
599621932248840320,11
599621932256526976,11
599621932264213632,11
599621932271900288,11
599621932279586944,13
599621932287273472,13
599621932294960128,13
599621932302646784,13
599621932310333440,13
599621932318020006,13
599621932325706624,13
599621932333393280,13
599621932341080064,13
599621932348766720,16
599621932356453376,16
599621932364140160,16
599621932371826816,18
599621932379513600,16
599621932387200256,16
599621932394886912,16
599621932402573696,13
599621932410260352,11
599621932417947008,6
599621932425633792,6
599621932433320448,27
599621932441007232,50
599621932448693888,53
599621932456380544,50
599621932464067328,53
599621932471753984,43
599621932479440640,25
599621932487127424,16
599621932494814080,18
599621932502500864,18
599621932510187520,16
599621932517874176,16
599621932525560960,18
599621932533247616,16
599621932540934272,16
599621932548621056,18
599621932556307712,18
599621932563994496,-20
599621932571681152,-140
599621932579367808,-231
599621932587054592,-57
599621932594741248,411
599621932602427904,855
599621932610114688,827
599621932617801344,314
599621932625488128,-87
599621932633174784,-104
599621932640861440,-69
599621932648548224,-73
599621932656234880,-9
599621932663921536,13
599621932671608320,-25
599621932679294976,-16
599621932686981760,4
599621932694668416,-2
599621932702355072,-2
599621932710041856,9
599621932717728512,11
599621932725415168,13
599621932733101952,20
599621932740788608,25
599621932748475392,25
599621932756162048,32
599621932763848704,39
599621932771535488,41
599621932779222144,46
599621932786908800,53
599621932794595584,60
599621932802282240,64
599621932809969024,73
599621932817655680,85
599621932825342336,92
599621932833029120,101
599621932840715776,113
599621932848402432,120
599621932856089216,124
599621932863775872,127
599621932871462656,122
599621932879149385,104
599621932886835968,73
599621932894522496,41
599621932902209152,13
599621932909895680,-11
599621932917582208,-30
599621932925268736,-41
599621932932955392,-48
599621932940641920,-48
599621932948328448,-48
599621932956015104,-48
599621932963701632,-43
599621932971388160,-39
599621932979074688,-36
599621932986761344,-36
599621932994447872,-32
599621933002134400,-27
599621933009821056,-27
599621933017507584,-25
599621933025194112,-23
599621933032880640,-18
599621933040567296,-16
599621933048253824,-13
599621933055940352,-13
599621933063627008,-9
599621933071313536,-6
599621933079000064,-4
599621933086686592,-4
599621933094373248,0
599621933102059776,2
599621933109746304,0
599621933117432960,2
599621933125119488,4
599621933132806016,4
599621933140492544,4
599621933148179200,6
599621933155865728,4
599621933163552256,6
599621933171238912,6
599621933178925440,9
599621933186611968,9
599621933194298496,6
599621933201985152,6
599621933209671680,9
599621933217358208,9
599621933225044864,9
599621933232731392,9
599621933240417920,11
599621933248104448,11
599621933255791104,11
599621933263477632,11
599621933271164160,11
599621933278850816,11
599621933286537344,13
599621933294223872,13
599621933301910400,16
599621933309597056,13
599621933317283584,13
599621933324970112,13
599621933332656768,13
599621933340343296,16
599621933348029824,16
599621933355716352,16
599621933363403008,16
599621933371089536,16
599621933378776064,16
599621933386462720,16
599621933394149248,13
599621933401835776,9
599621933409522304,6
599621933417208960,6
599621933424895488,20
599621933432582016,46
599621933440268594,55
599621933447954944,50
599621933455641344,50
599621933463327744,43
599621933471014272,27
599621933478700672,16
599621933486387072,16
599621933494073472,18
599621933501759872,16
599621933509446400,16
599621933517132800,16
599621933524819200,16
599621933532505600,16
599621933540192000,16
599621933547878528,16
599621933555564928,-11
599621933563251328,-117
599621933570937728,-226
599621933578624128,-108
599621933586310656,316
599621933593997056,799
599621933601683456,878
599621933609369856,418
599621933617056256,-46
599621933624742784,-113
599621933632429184,-67
599621933640115584,-80
599621933647801984,-23
599621933655488384,16
599621933663174784,-23
599621933670861312,-23
599621933678547712,2
599621933686234112,0
599621933693920512,-4
599621933701606912,6
599621933709293440,9
599621933716979840,9
599621933724666240,13
599621933732352640,18
599621933740039040,23
599621933747725568,27
599621933755411968,32
599621933763098368,36
599621933770784768,43
599621933778471168,48
599621933786157696,53
599621933793844096,60
599621933801530496,69
599621933809216896,78
599621933816903296,87
599621933824589824,97
599621933832276224,106
599621933839962624,113
599621933847649024,120
599621933855335424,122
599621933863021952,117
599621933870708352,101
599621933878394752,76
599621933886081152,43
599621933893767552,13
599621933901454080,-9
599621933909140480,-25
599621933916826880,-39
599621933924513280,-46
599621933932199680,-48
599621933939886208,-48
599621933947572608,-46
599621933955259008,-41
599621933962945408,-39
599621933970631808,-39
599621933978318336,-36
599621933986004736,-32
599621933993691136,-30
599621934001377625,-27
599621934009064320,-25
599621934016750976,-23
599621934024437760,-20
599621934032124416,-18
599621934039811072,-16
599621934047497856,-13
599621934055184512,-11
599621934062871296,-9
599621934070557952,-9
599621934078244608,-6
599621934085931392,-4
599621934093618048,-2
599621934101304704,0
599621934108991488,2
599621934116678144,2
599621934124364928,4
599621934132051584,4
599621934139738240,4
599621934147425024,6
599621934155111680,6
599621934162798336,4
599621934170485120,6
599621934178171776,9
599621934185858560,9
599621934193545216,9
599621934201231872,9
599621934208918656,9
599621934216605312,9
599621934224291968,9
599621934231978752,9
599621934239665408,9
599621934247352192,11
599621934255038848,11
599621934262725504,13
599621934270412288,13
599621934278098944,13
599621934285785600,11
599621934293472384,13
599621934301159040,11
599621934308845824,13
599621934316532480,13
599621934324219136,13
599621934331905920,13
599621934339592576,16
599621934347279232,18
599621934354966016,16
599621934362652672,16
599621934370339456,18
599621934378026112,16
599621934385712768,13
599621934393399552,9
599621934401086208,2
599621934408772864,4
599621934416459648,30
599621934424146304,50
599621934431833088,53
599621934439519744,55
599621934447206400,62
599621934454893184,48
599621934462579840,23
599621934470266496,16
599621934477953280,9
599621934485639936,4
599621934493326720,11
599621934501013376,16
599621934508700032,9
599621934516386816,11
599621934524073472,13
599621934531760128,13
599621934539446912,6
599621934547133568,-43
599621934554820352,-164
599621934562507008,-228
599621934570193280,-25
599621934577879552,462
599621934585565824,903
599621934593252096,825
599621934600938368,281
599621934608624768,-85
599621934616311040,-85
599621934623997312,-71
599621934631683584,-78
599621934639369856,-30
599621934647056128,-36
599621934654742400,-69
599621934662428672,-41
599621934670114944,-20
599621934677801344,-36
599621934685487616,-32
599621934693173888,-13
599621934700860160,-20
599621934708546432,-25
599621934716232704,-13
599621934723918976,-6
599621934731605248,4
599621934739291520,23
599621934746977792,27
599621934754664192,18
599621934762350464,25
599621934770036736,34
599621934777723008,36
599621934785409280,50
599621934793095552,80
599621934800781824,104
599621934808468096,104
599621934816154368,99
599621934823840768,90
599621934831527040,62
599621934839213312,39
599621934846899584,78
599621934854585856,152
599621934862272128,145
599621934869958400,90
599621934877644672,55
599621934885330944,30
599621934893017344,2
599621934900703616,-20
599621934908389888,-39
599621934916076160,-43
599621934923762432,-62
599621934931448704,-64
599621934939134976,-27
599621934946821248,-6
599621934954507520,-23
599621934962193792,-23
599621934969880192,-11
599621934977566464,-30
599621934985252736,-60
599621934992939008,-53
599621935000625280,-23
599621935008311552,-18
599621935015997824,-23
599621935023684096,-6
599621935031370368,11
599621935039056768,0
599621935046743040,-18
599621935054429312,-20
599621935062115584,-20
599621935069801856,-11
599621935077488128,-6
599621935085174400,-18
599621935092860672,-20
599621935100546944,-13
599621935108233344,-13
599621935115919616,-16
599621935123605869,-20
599621935131292544,-4
599621935138979200,13
599621935146665984,4
599621935154352640,-4
599621935162039296,-2
599621935169726080,-11
599621935177412736,-20
599621935185099520,-23
599621935192786176,-16
599621935200472832,2
599621935208159616,6
599621935215846272,-16
599621935223532928,-32
599621935231219712,-18
599621935238906368,-6
599621935246593152,-18
599621935254279808,-18
599621935261966464,-11
599621935269653248,-25
599621935277339904,-25
599621935285026560,2
599621935292713344,-6
599621935300400000,-43
599621935308086784,-23
599621935315773440,20
599621935323460096,25
599621935331146880,36
599621935338833536,41
599621935346520192,4
599621935354206976,-23
599621935361893632,-2
599621935369580416,13
599621935377267072,-6
599621935384953728,-27
599621935392640512,-13
599621935400327168,13
599621935408013824,27
599621935415700608,4
599621935423387264,-20
599621935431074048,-16
599621935438760704,-43
599621935446447360,-157
599621935454134144,-235
599621935461820800,-46
599621935469507456,439
599621935477194240,889
599621935484880896,855
599621935492567680,337
599621935500254336,-78
599621935507940992,-117
599621935515627776,-83
599621935523314432,-67
599621935531001088,-11
599621935538687872,-18
599621935546374528,-64
599621935554061312,-50
599621935561747968,-39
599621935569434624,-46
599621935577121408,-27
599621935584808064,4
599621935592494720,13
599621935600181504,2
599621935607868160,9
599621935615554944,41
599621935623241600,41
599621935630928256,13
599621935638615040,36
599621935646301696,92
599621935653988352,108
599621935661675136,97
599621935669361792,104
599621935677048576,138
599621935684735248,164
599621935692421760,168
599621935700108288,203
599621935707794688,247
599621935715481216,233
599621935723167744,219
599621935730854272,265
599621935738540672,302
599621935746227200,263
599621935753913728,208
599621935761600256,201
599621935769286656,214
599621935776973184,180
599621935784659712,120
599621935792346240,106
599621935800032640,134
599621935807719168,164
599621935815405696,164
599621935823092224,152
599621935830778624,164
599621935838465152,196
599621935846151680,214
599621935853838208,196
599621935861524608,219
599621935869211136,288
599621935876897664,291
599621935884584192,251
599621935892270592,279
599621935899957120,318
599621935907643648,300
599621935915330048,298
599621935923016576,365
599621935930703104,406
599621935938389632,369
599621935946076032,351
599621935953762560,381
599621935961449088,404
599621935969135616,404
599621935976822016,411
599621935984508544,443
599621935992195072,450
599621935999881600,425
599621936007568000,427
599621936015254528,450
599621936022941056,450
599621936030627584,434
599621936038313984,416
599621936046000512,406
599621936053687040,452
599621936061373568,492
599621936069059968,432
599621936076746496,392
599621936084433024,448
599621936092119552,478
599621936099805952,464
599621936107492480,473
599621936115179008,480
599621936122865408,464
599621936130551936,427
599621936138238464,409
599621936145924992,466
599621936153611392,492
599621936161297920,416
599621936168984448,390
599621936176670976,427
599621936184357376,409
599621936192043904,379
599621936199730432,404
599621936207416960,411
599621936215103360,362
599621936222789888,335
599621936230476416,321
599621936238162944,226
599621936245849370,226
599621936253535872,568
599621936261222400,1003
599621936268908800,1037
599621936276595328,628
599621936284281856,247
599621936291968384,184
599621936299654784,224
599621936307341312,235
599621936315027840,314
599621936322714368,369
599621936330400768,328
599621936338087296,307
599621936345773824,330
599621936353460352,321
599621936361146752,309
599621936368833280,314
599621936376519808,312
599621936384206336,312
599621936391892736,309
599621936399579264,307
599621936407265792,300
599621936414952320,298
599621936422638720,302
599621936430325248,302
599621936438011776,300
599621936445698304,307
599621936453384704,314
599621936461071232,312
599621936468757760,312
599621936476444160,321
599621936484130688,332
599621936491817216,335
599621936499503744,335
599621936507190144,339
599621936514876672,337
599621936522563200,321
599621936530249728,295
599621936537936128,261
599621936545622656,214
599621936553309184,166
599621936560995712,127
599621936568682112,99
599621936576368640,83
599621936584055168,80
599621936591741696,62
599621936599428096,46
599621936607114624,57
599621936614801152,64
599621936622487680,48
599621936630174080,43
599621936637860608,62
599621936645547136,62
599621936653233536,50
599621936660920064,50
599621936668606592,53
599621936676293120,50
599621936683979520,43
599621936691666048,43
599621936699352576,41
599621936707039104,41
599621936714725504,48
599621936722412032,50
599621936730098560,43
599621936737785088,34
599621936745471488,32
599621936753158016,30
599621936760844544,23
599621936768531072,25
599621936776217472,25
599621936783904000,18
599621936791590528,9
599621936799277056,4
599621936806963488,6
599621936814649728,4
599621936822336000,-4
599621936830022272,-2
599621936837708544,18
599621936845394816,32
599621936853081216,16
599621936860767488,6
599621936868453760,6
599621936876140032,-13
599621936883826304,-36
599621936891512576,-39
599621936899198848,-36
599621936906885120,-48
599621936914571392,-50
599621936922257792,-43
599621936929944064,-46
599621936937630336,-53
599621936945316608,-53
599621936953002880,-55
599621936960689152,-57
599621936968375424,-101
599621936976061696,-217
599621936983747968,-261
599621936991434240,-32
599621936999120640,397
599621937006806912,681
599621937014493184,487
599621937022179456,9
599621937029865728,-210
599621937037552000,-166
599621937045238272,-152
599621937052924544,-110
599621937060610816,-41
599621937068297216,-62
599621937075983488,-76
599621937083669760,-39
599621937091356032,-53
599621937099042304,-78
599621937106728576,-46
599621937114414848,-18
599621937122101120,-23
599621937129787392,-16
599621937137473792,-11
599621937145160064,-18
599621937152846336,-2
599621937160532608,32
599621937168218880,34
599621937175905152,18
599621937183591424,39
599621937191277696,60
599621937198963968,36
599621937206650240,25
599621937214336640,62
599621937222022912,99
599621937229709184,87
599621937237395456,87
599621937245081728,117
599621937252768000,124
599621937260454272,104
599621937268140544,92
599621937275826816,76
599621937283513216,41
599621937291199488,9
599621937298885760,-23
599621937306572032,-60
599621937314258304,-73
599621937321944576,-76
599621937329630848,-99
599621937337317120,-108
599621937345003392,-94
599621937352689792,-94
599621937360376064,-106
599621937368062349,-115
599621937375748992,-108
599621937383435648,-97
599621937391122432,-104
599621937398809088,-108
599621937406495744,-104
599621937414182528,-110
599621937421869184,-115
599621937429555968,-106
599621937437242624,-110
599621937444929280,-122
599621937452616064,-113
599621937460302720,-99
599621937467989376,-113
599621937475676160,-138
599621937483362816,-122
599621937491049600,-87
599621937498736256,-87
599621937506422912,-113
599621937514109696,-124
599621937521796352,-117
599621937529483008,-108
599621937537169792,-122
599621937544856448,-140
599621937552543232,-136
599621937560229888,-129
599621937567916544,-124
599621937575603328,-99
599621937583289984,-85
599621937590976640,-108
599621937598663424,-120
599621937606350080,-117
599621937614036864,-140
599621937621723520,-157
599621937629410176,-150
599621937637096960,-154
599621937644783616,-161
599621937652470272,-168
599621937660157056,-171
599621937667843712,-168
599621937675530496,-184
599621937683217152,-201
599621937690903808,-180
599621937698590592,-205
599621937706277248,-351
599621937713963904,-448
599621937721650688,-254
599621937729337344,224
599621937737024128,670
599621937744710784,621
599621937752397440,90
599621937760084224,-279
599621937767770880,-277
599621937775457536,-286
599621937783144320,-323
599621937790830976,-242
599621937798517760,-208
599621937806204416,-258
599621937813891072,-265
599621937821577856,-235
599621937829264512,-226
599621937836951168,-233
599621937844637952,-244
599621937852324608,-242
599621937860011392,-219
599621937867698048,-210
599621937875384704,-231
599621937883071488,-217
599621937890758144,-180
599621937898444800,-175
599621937906131584,-187
599621937913818240,-187
599621937921505024,-177
599621937929191728,-150
599621937936877952,-143
599621937944564224,-159
599621937952250496,-138
599621937959936768,-104
599621937967623040,-97
599621937975309440,-87
599621937982995712,-64
599621937990681984,-71
599621937998368256,-87
599621938006054528,-83
599621938013740800,-113
599621938021427072,-168
599621938029113344,-180
599621938036799616,-171
599621938044486016,-184
599621938052172288,-210
599621938059858560,-205
599621938067544832,-194
599621938075231104,-201
599621938082917376,-205
599621938090603648,-182
599621938098289920,-161
599621938105976192,-166
599621938113662464,-180
599621938121348864,-173
599621938129035136,-140
599621938136721408,-134
599621938144407680,-159
599621938152093952,-166
599621938159780224,-152
599621938167466496,-136
599621938175152768,-131
599621938182839040,-145
599621938190525440,-138
599621938198211712,-108
599621938205897984,-101
599621938213584256,-127
599621938221270528,-140
599621938228956800,-115
599621938236643072,-94
599621938244329344,-110
599621938252015616,-106
599621938259702016,-87
599621938267388288,-99
599621938275074560,-104
599621938282760832,-97
599621938290447104,-110
599621938298133376,-99
599621938305819648,-60
599621938313505920,-53
599621938321192192,-50
599621938328878592,-36
599621938336564864,-62
599621938344251136,-92
599621938351937408,-80
599621938359623680,-73
599621938367309952,-83
599621938374996224,-78
599621938382682496,-85
599621938390368768,-90
599621938398055040,-69
599621938405741440,-76
599621938413427712,-124
599621938421113984,-140
599621938428800256,-85
599621938436486528,-110
599621938444172800,-305
599621938451859072,-316
599621938459545344,73
599621938467231616,617
599621938474918016,917
599621938482604288,654
599621938490290593,108
599621938497977088,-124
599621938505663616,-122
599621938513350272,-180
599621938521036800,-196
599621938528723328,-173
599621938536409856,-219
599621938544096512,-240
599621938551783040,-173
599621938559469568,-159
599621938567156224,-224
599621938574842752,-198
599621938582529280,-136
599621938590215808,-194
599621938597902464,-205
599621938605588992,-122
599621938613275520,-164
599621938620962176,-214
599621938628648704,-129
599621938636335232,-97
599621938644021760,-154
599621938651708416,-175
599621938659394944,-173
599621938667081472,-145
599621938674768128,-115
599621938682454656,-177
599621938690141184,-198
599621938697827712,-64
599621938705514368,-30
599621938713200896,-143
599621938720887424,-124
599621938728574080,-11
599621938736260608,-30
599621938743947136,-134
599621938751633664,-171
599621938759320320,-122
599621938767006848,-110
599621938774693376,-145
599621938782380032,-129
599621938790066560,-129
599621938797753088,-168
599621938805439616,-154
599621938813126272,-117
599621938820812800,-129
599621938828499328,-161
599621938836185984,-157
599621938843872512,-115
599621938851559040,-113
599621938859245568,-159
599621938866932224,-147
599621938874618752,-104
599621938882305280,-124
599621938889991936,-154
599621938897678464,-138
599621938905364992,-134
599621938913051520,-150
599621938920738176,-145
599621938928424704,-136
599621938936111232,-150
599621938943797888,-147
599621938951484416,-127
599621938959170944,-127
599621938966857472,-143
599621938974544128,-157
599621938982230656,-159
599621938989917184,-143
599621938997603840,-134
599621939005290368,-145
599621939012976896,-159
599621939020663424,-159
599621939028350080,-159
599621939036036608,-150
599621939043723136,-136
599621939051409800,-150
599621939059096192,-177
599621939066782592,-173
599621939074468992,-136
599621939082155520,-106
599621939089841920,-110
599621939097528320,-120
599621939105214720,-113
599621939112901120,-113
599621939120587648,-129
599621939128274048,-140
599621939135960448,-150
599621939143646848,-147
599621939151333248,-131
599621939159019776,-136
599621939166706176,-164
599621939174392576,-152
599621939182078976,-122
599621939189765376,-131
599621939197451904,-136
599621939205138304,-147
599621939212824704,-254
599621939220511104,-388
599621939228197504,-309
599621939235884032,113
599621939243570432,691
599621939251256832,929
599621939258943232,529
599621939266629632,-2
599621939274316032,-136
599621939282002560,-136
599621939289688960,-214
599621939297375360,-191
599621939305061760,-154
599621939312748160,-201
599621939320434688,-205
599621939328121088,-182
599621939335807488,-182
599621939343493888,-154
599621939351180288,-129
599621939358866816,-150
599621939366553216,-147
599621939374239616,-115
599621939381926016,-122
599621939389612416,-143
599621939397298944,-115
599621939404985344,-78
599621939412671744,-87
599621939420358144,-113
599621939428044544,-108
599621939435731072,-99
599621939443417472,-97
599621939451103872,-78
599621939458790272,-71
599621939466476672,-73
599621939474163200,-69
599621939481849600,-55
599621939489536000,-39
599621939497222400,-41
599621939504908800,-50
599621939512595328,-43
599621939520281728,-53
599621939527968128,-64
599621939535654528,-71
599621939543340928,-97
599621939551027456,-113
599621939558713856,-106
599621939566400256,-115
599621939574086656,-138
599621939581773056,-136
599621939589459584,-113
599621939597145984,-108
599621939604832384,-129
599621939612518833,-129
599621939620205440,-115
599621939627892096,-117
599621939635578880,-113
599621939643265536,-101
599621939650952192,-113
599621939658638976,-127
599621939666325632,-113
599621939674012416,-104
599621939681699072,-124
599621939689385728,-127
599621939697072512,-85
599621939704759168,-73
599621939712445824,-113
599621939720132608,-127
599621939727819264,-97
599621939735506048,-90
599621939743192704,-104
599621939750879360,-104
599621939758566144,-83
599621939766252800,-69
599621939773939456,-78
599621939781626240,-90
599621939789312896,-80
599621939796999680,-71
599621939804686336,-71
599621939812372992,-80
599621939820059776,-87
599621939827746432,-85
599621939835433088,-83
599621939843119872,-71
599621939850806528,-36
599621939858493312,-13
599621939866179968,-13
599621939873866624,-16
599621939881553408,-32
599621939889240064,-55
599621939896926720,-67
599621939904613504,-62
599621939912300160,-50
599621939919986944,-55
599621939927673600,-64
599621939935360256,-50
599621939943047040,-41
599621939950733696,-62
599621939958420352,-71
599621939966107136,-55
599621939973793792,-48
599621939981480576,-143
599621939989167232,-307
599621939996853888,-291
599621940004540672,48
599621940012227328,598
599621940019913984,996
599621940027600768,783
599621940035287424,201
599621940042974208,-69
599621940050660864,-71
599621940058347520,-124
599621940066034304,-140
599621940073720960,-106
599621940081407616,-124
599621940089094400,-145
599621940096781056,-122
599621940104467840,-104
599621940112154496,-108
599621940119841152,-106
599621940127527936,-99
599621940135214592,-101
599621940142901248,-94
599621940150588032,-78
599621940158274688,-80
599621940165961472,-85
599621940173648212,-73
599621940181334528,-55
599621940189020800,-53
599621940196707072,-60
599621940204393344,-57
599621940212079616,-50
599621940219766016,-48
599621940227452288,-32
599621940235138560,-6
599621940242824832,2
599621940250511104,-6
599621940258197376,-9
599621940265883648,11
599621940273569920,32
599621940281256192,13
599621940288942592,-18
599621940296628864,-27
599621940304315136,-39
599621940312001408,-55
599621940319687680,-64
599621940327373952,-92
599621940335060224,-122
599621940342746496,-101
599621940350432768,-71
599621940358119040,-78
599621940365805440,-90
599621940373491712,-94
599621940381177984,-87
599621940388864256,-69
599621940396550528,-71
599621940404236800,-87
599621940411923072,-73
599621940419609344,-48
599621940427295616,-60
599621940434982016,-73
599621940442668288,-57
599621940450354560,-46
599621940458040832,-57
599621940465727104,-67
599621940473413376,-60
599621940481099648,-39
599621940488785920,-43
599621940496472192,-64
599621940504158592,-57
599621940511844864,-36
599621940519531136,-39
599621940527217408,-48
599621940534903680,-43
599621940542589952,-32
599621940550276224,-36
599621940557962496,-53
599621940565648768,-53
599621940573335040,-46
599621940581021440,-50
599621940588707712,-32
599621940596393984,0
599621940604080256,11
599621940611766528,13
599621940619452800,6
599621940627139072,-16
599621940634825344,-32
599621940642511616,-27
599621940650198016,-25
599621940657884288,-30
599621940665570560,-39
599621940673256832,-41
599621940680943104,-25
599621940688629376,-25
599621940696315648,-39
599621940704001920,-36
599621940711688192,-27
599621940719374592,-41
599621940727060864,-124
599621940734747073,-256
599621940742433792,-233
599621940750120448,104
599621940757807232,607
599621940765493888,866
599621940773180544,568
599621940780867328,55
599621940788553984,-124
599621940796240768,-104
599621940803927424,-127
599621940811614080,-92
599621940819300864,-34
599621940826987520,-60
599621940834674176,-76
599621940842360960,-46
599621940850047616,-41
599621940857734400,-53
599621940865421056,-34
599621940873107712,-23
599621940880794496,-34
599621940888481152,-30
599621940896167808,-13
599621940903854592,-13
599621940911541248,-20
599621940919228032,-11
599621940926914688,2
599621940934601344,4
599621940942288128,6
599621940949974784,16
599621940957661440,20
599621940965348224,30
599621940973034880,43
599621940980721664,39
599621940988408320,36
599621940996094976,57
599621941003781760,71
599621941011468416,67
599621941019155072,67
599621941026841856,62
599621941034528512,36
599621941042215296,11
599621941049901952,-6
599621941057588608,-23
599621941065275392,-43
599621941072962048,-48
599621941080648704,-41
599621941088335488,-48
599621941096022144,-62
599621941103708928,-62
599621941111395584,-48
599621941119082240,-41
599621941126769024,-48
599621941134455680,-48
599621941142142336,-41
599621941149829120,-39
599621941157515776,-36
599621941165202560,-30
599621941172889216,-32
599621941180575872,-32
599621941188262656,-25
599621941195949312,-25
599621941203635968,-32
599621941211322752,-27
599621941219009408,-25
599621941226696192,-34
599621941234382848,-32
599621941242069504,-16
599621941249756288,-16
599621941257442944,-20
599621941265129600,-20
599621941272816384,-18
599621941280503040,-18
599621941288189824,-18
599621941295876452,-23
599621941303562880,-27
599621941311249280,-2
599621941318935552,34
599621941326621952,41
599621941334308352,30
599621941341994624,25
599621941349681024,11
599621941357367424,-4
599621941365053696,-9
599621941372740096,-13
599621941380426496,-9
599621941388112768,-2
599621941395799168,-6
599621941403485440,-16
599621941411171840,-11
599621941418858240,-6
599621941426544512,-4
599621941434230912,-11
599621941441917312,-23
599621941449603584,-78
599621941457289984,-198
599621941464976384,-205
599621941472662656,78
599621941480349056,543
599621941488035456,774
599621941495721728,506
599621941503408128,64
599621941511094528,-94
599621941518780800,-80
599621941526467200,-94
599621941534153600,-50
599621941541839872,0
599621941549526272,-30
599621941557212672,-48
599621941564898944,-20
599621941572585344,-13
599621941580271616,-20
599621941587958016,-11
599621941595644416,-2
599621941603330688,6
599621941611017088,16
599621941618703488,11
599621941626389760,2
599621941634076160,9
599621941641762560,16
599621941649448832,18
599621941657135232,23
599621941664821632,34
599621941672507904,41
599621941680194304,39
599621941687880704,34
599621941695566976,43
599621941703253376,60
599621941710939776,64
599621941718626048,67
599621941726312448,76
599621941733998848,83
599621941741685120,78
599621941749371520,73
599621941757057792,69
599621941764744192,48
599621941772430592,13
599621941780116864,4
599621941787803264,11
599621941795489664,6
599621941803175936,-2
599621941810862336,2
599621941818548736,9
599621941826235008,6
599621941833921408,6
599621941841607808,16
599621941849294080,23
599621941856980404,23
599621941864667008,23
599621941872353664,27
599621941880040320,34
599621941887726848,34
599621941895413504,32
599621941903100160,39
599621941910786816,46
599621941918473472,43
599621941926160128,43
599621941933846656,48
599621941941533312,50
599621941949219968,53
599621941956906624,60
599621941964593280,53
599621941972279936,46
599621941979966464,53
599621941987653120,60
599621941995339776,60
599621942003026432,57
599621942010713088,55
599621942018399744,53
599621942026086272,48
599621942033772928,46
599621942041459584,53
599621942049146240,78
599621942056832896,97
599621942064519552,94
599621942072206080,97
599621942079892736,94
599621942087579392,73
599621942095266048,57
599621942102952704,55
599621942110639360,55
599621942118325888,53
599621942126012544,53
599621942133699200,53
599621942141385856,53
599621942149072512,48
599621942156759168,48
599621942164445696,48
599621942172132352,43
599621942179819008,4
599621942187505664,-108
599621942195192320,-189
599621942202878848,-36
599621942210565504,385
599621942218252160,815
599621942225938816,811
599621942233625472,376
599621942241312128,57
599621942248998656,27
599621942256685312,2
599621942264371968,-46
599621942272058624,-13
599621942279745280,-2
599621942287431936,-30
599621942295118464,-27
599621942302805120,-16
599621942310491776,-20
599621942318178432,-20
599621942325865088,-13
599621942333551744,-11
599621942341238272,-9
599621942348924928,-2
599621942356611584,2
599621942364298240,6
599621942371984896,11
599621942379671552,13
599621942387358080,18
599621942395044736,18
599621942402731392,18
599621942410418048,20
599621942418104696,23
599621942425791232,23
599621942433477760,27
599621942441164160,32
599621942448850688,36
599621942456537216,41
599621942464223744,46
599621942471910144,48
599621942479596672,50
599621942487283200,50
599621942494969728,41
599621942502656128,25
599621942510342656,9
599621942518029184,0
599621942525715712,-4
599621942533402112,-9
599621942541088640,-11
599621942548775168,-11
599621942556461696,-11
599621942564148096,-9
599621942571834624,-6
599621942579521152,0
599621942587207680,4
599621942594894080,6
599621942602580608,6
599621942610267136,6
599621942617953664,6
599621942625640064,11
599621942633326592,11
599621942641013120,13
599621942648699520,13
599621942656386048,13
599621942664072576,13
599621942671759104,18
599621942679445504,16
599621942687132032,16
599621942694818560,20
599621942702505088,23
599621942710191488,23
599621942717878016,25
599621942725564544,27
599621942733251072,27
599621942740937472,30
599621942748624000,30
599621942756310528,23
599621942763997056,18
599621942771683456,18
599621942779369984,32
599621942787056512,60
599621942794743040,76
599621942802429440,71
599621942810115968,73
599621942817802496,71
599621942825489024,53
599621942833175424,39
599621942840861952,36
599621942848548480,36
599621942856234880,39
599621942863921408,39
599621942871607936,36
599621942879294464,34
599621942886980864,41
599621942894667392,39
599621942902353920,39
599621942910040448,36
599621942917726848,-13
599621942925413376,-138
599621942933099904,-201
599621942940786432,6
599621942948472832,476
599621942956159360,887
599621942963845888,818
599621942971532416,351
599621942979218818,43
599621942986905344,9
599621942994591872,-18
599621943002278272,-34
599621943009964800,2
599621943017651328,0
599621943025337856,-23
599621943033024256,-9
599621943040710784,2
599621943048397312,2
599621943056083840,6
599621943063770240,16
599621943071456768,20
599621943079143296,20
599621943086829824,23
599621943094516224,32
599621943102202752,34
599621943109889280,32
599621943117575808,39
599621943125262208,46
599621943132948736,46
599621943140635264,48
599621943148321792,57
599621943156008192,67
599621943163694720,69
599621943171381248,69
599621943179067776,73
599621943186754176,83
599621943194440704,92
599621943202127232,97
599621943209813632,94
599621943217500160,94
599621943225186688,94
599621943232873216,85
599621943240559616,67
599621943248246144,50
599621943255932672,43
599621943263619200,36
599621943271305600,32
599621943278992128,32
599621943286678656,30
599621943294365184,30
599621943302051584,41
599621943309738112,46
599621943317424640,39
599621943325111168,39
599621943332797568,43
599621943340484096,46
599621943348170624,46
599621943355857152,46
599621943363543552,50
599621943371230080,57
599621943378916608,53
599621943386603008,55
599621943394289536,57
599621943401976064,53
599621943409662592,57
599621943417348992,60
599621943425035520,53
599621943432722048,55
599621943440408576,62
599621943448094976,67
599621943455781504,67
599621943463468032,64
599621943471154560,62
599621943478840960,62
599621943486527488,64
599621943494214016,62
599621943501900544,60
599621943509586944,55
599621943517273472,48
599621943524960000,60
599621943532646528,92
599621943540332936,108
599621943548019200,108
599621943555705472,110
599621943563391744,99
599621943571078016,78
599621943578764288,67
599621943586450688,62
599621943594136960,67
599621943601823232,71
599621943609509504,67
599621943617195776,64
599621943624882048,69
599621943632568320,67
599621943640254592,62
599621943647940864,67
599621943655627264,64
599621943663313536,-4
599621943670999808,-147
599621943678686080,-180
599621943686372352,78
599621943694058624,584
599621943701744896,1000
599621943709431168,882
599621943717117440,365
599621943724803712,60
599621943732490112,41
599621943740176384,11
599621943747862656,-20
599621943755548928,11
599621943763235200,6
599621943770921472,-18
599621943778607744,-6
599621943786294016,9
599621943793980288,9
599621943801666688,9
599621943809352960,16
599621943817039232,18
599621943824725504,20
599621943832411776,27
599621943840098048,27
599621943847784320,30
599621943855470592,36
599621943863156864,39
599621943870843264,39
599621943878529536,41
599621943886215808,46
599621943893902080,50
599621943901588352,57
599621943909274624,60
599621943916960896,60
599621943924647168,64
599621943932333440,71
599621943940019712,80
599621943947706112,85
599621943955392384,87
599621943963078656,85
599621943970764928,78
599621943978451200,64
599621943986137472,50
599621943993823744,34
599621944001510016,23
599621944009196288,13
599621944016882688,11
599621944024568960,9
599621944032255232,4
599621944039941504,4
599621944047627776,11
599621944055314048,13
599621944063000320,13
599621944070686592,18
599621944078372864,18
599621944086059264,16
599621944093745536,16
599621944101431797,23
599621944109118464,23
599621944116805120,20
599621944124491904,23
599621944132178560,25
599621944139865216,23
599621944147552000,25
599621944155238656,25
599621944162925440,30
599621944170612096,32
599621944178298752,32
599621944185985536,34
599621944193672192,39
599621944201358848,39
599621944209045632,39
599621944216732288,41
599621944224419072,39
599621944232105728,39
599621944239792384,39
599621944247479168,34
599621944255165824,27
599621944262852480,27
599621944270539264,36
599621944278225920,62
599621944285912704,83
599621944293599360,83
599621944301286016,83
599621944308972800,80
599621944316659456,62
599621944324346112,46
599621944332032896,41
599621944339719552,41
599621944347406336,43
599621944355092992,46
599621944362779648,41
599621944370466432,41
599621944378153088,46
599621944385839744,46
599621944393526528,46
599621944401213184,43
599621944408899968,9
599621944416586624,-106
599621944424273280,-219
599621944431960064,-94
599621944439646720,337
599621944447333376,829
599621944455020160,929
599621944462706816,503
599621944470393600,73
599621944478080256,-6
599621944485766912,-2
599621944493453696,-39
599621944501140352,-9
599621944508827008,16
599621944516513792,-6
599621944524200448,-9
599621944531887232,6
599621944539573888,9
599621944547260544,9
599621944554947328,13
599621944562633984,20
599621944570320640,25
599621944578007424,25
599621944585694080,27
599621944593380864,34
599621944601067520,41
599621944608754176,43
599621944616440960,48
599621944624127616,53
599621944631814272,57
599621944639501056,62
599621944647187712,62
599621944654874496,64
599621944662561176,71
599621944670247424,78
599621944677933696,87
599621944685619968,92
599621944693306240,92
599621944700992512,92
599621944708678912,94
599621944716365184,90
599621944724051456,73
599621944731737728,53
599621944739424000,36
599621944747110272,23
599621944754796544,13
599621944762482816,6
599621944770169088,2
599621944777855488,4
599621944785541760,9
599621944793228032,4
599621944800914304,0
599621944808600576,6
599621944816286848,9
599621944823973120,9
599621944831659392,11
599621944839345664,13
599621944847031936,16
599621944854718336,18
599621944862404608,16
599621944870090880,16
599621944877777152,18
599621944885463424,20
599621944893149696,20
599621944900835968,23
599621944908522240,27
599621944916208512,30
599621944923894912,27
599621944931581184,27
599621944939267456,30
599621944946953728,34
599621944954640000,41
599621944962326272,43
599621944970012544,41
599621944977698816,43
599621944985385088,43
599621944993071488,36
599621945000757760,36
599621945008444032,36
599621945016130304,32
599621945023816576,34
599621945031502848,60
599621945039189120,83
599621945046875392,85
599621945054561664,87
599621945062248064,90
599621945069934336,73
599621945077620608,55
599621945085306880,46
599621945092993152,48
599621945100679424,48
599621945108365696,43
599621945116051968,43
599621945123738240,46
599621945131424512,50
599621945139110912,53
599621945146797184,48
599621945154483456,41
599621945162169728,13
599621945169856000,-97
599621945177542272,-214
599621945185228544,-99
599621945192914816,328
599621945200601088,836
599621945208287488,973
599621945215973760,563
599621945223660041,113
599621945231346688,11
599621945239033344,13
599621945246720128,-30
599621945254406784,-13
599621945262093440,9
599621945269780224,-13
599621945277466880,-16
599621945285153664,2
599621945292840320,0
599621945300526976,2
599621945308213760,11
599621945315900416,13
599621945323587072,11
599621945331273856,9
599621945338960512,13
599621945346647296,25
599621945354333952,27
599621945362020608,23
599621945369707392,20
599621945377394048,32
599621945385080704,46
599621945392767488,46
599621945400454144,43
599621945408140928,50
599621945415827584,57
599621945423514240,60
599621945431201024,64
599621945438887680,71
599621945446574336,76
599621945454261120,76
599621945461947776,80
599621945469634560,78
599621945477321216,62
599621945485007872,46
599621945492694656,34
599621945500381312,20
599621945508067968,16
599621945515754752,11
599621945523441408,9
599621945531128192,6
599621945538814848,6
599621945546501504,9
599621945554188288,13
599621945561874944,13
599621945569561600,16
599621945577248384,20
599621945584935040,18
599621945592621824,18
599621945600308480,25
599621945607995136,27
599621945615681920,20
599621945623368576,20
599621945631055232,27
599621945638742016,32
599621945646428672,30
599621945654115456,27
599621945661802112,30
599621945669488768,30
599621945677175552,27
599621945684862208,27
599621945692548864,39
599621945700235648,46
599621945707922304,39
599621945715609088,34
599621945723295744,39
599621945730982400,39
599621945738669184,30
599621945746355840,25
599621945754042496,23
599621945761729280,16
599621945769415936,27
599621945777102720,55
599621945784789420,69
599621945792476032,71
599621945800162688,76
599621945807849472,64
599621945815536128,41
599621945823222784,25
599621945830909568,25
599621945838596224,23
599621945846283008,18
599621945853969664,25
599621945861656320,32
599621945869343104,23
599621945877029760,16
599621945884716416,20
599621945892403200,23
599621945900089856,20
599621945907776640,-23
599621945915463296,-152
599621945923149952,-235
599621945930836736,-53
599621945938523392,413
599621945946210048,889
599621945953896832,905
599621945961583488,420
599621945969270272,39
599621945976956928,6
599621945984643584,-6
599621945992330368,-57
599621946000017024,-32
599621946007703680,-16
599621946015390464,-36
599621946023077120,-32
599621946030763904,-20
599621946038450560,-23
599621946046137216,-20
599621946053824000,-6
599621946061510656,6
599621946069197312,-2
599621946076884096,-4
599621946084570752,18
599621946092257536,25
599621946099944192,13
599621946107630848,13
599621946115317632,23
599621946123004288,34
599621946130690944,41
599621946138377728,48
599621946146064384,48
599621946153751168,53
599621946161437824,67
599621946169124480,69
599621946176811264,57
599621946184497920,62
599621946192184576,73
599621946199871360,76
599621946207558016,71
599621946215244800,67
599621946222931456,53
599621946230618112,50
599621946238304896,48
599621946245991552,30
599621946253678208,23
599621946261364992,11
599621946269051648,-4
599621946276738432,6
599621946284425088,23
599621946292111744,18
599621946299798528,6
599621946307485184,9
599621946315171840,23
599621946322858624,25
599621946330545280,13
599621946338232064,18
599621946345918799,36
599621946353605120,32
599621946361291392,18
599621946368977664,41
599621946376663936,69
599621946384350208,60
599621946392036608,57
599621946399722880,71
599621946407409152,76
599621946415095424,71
599621946422781696,60
599621946430467968,62
599621946438154240,69
599621946445840512,60
599621946453526784,46
599621946461213184,60
599621946468899456,90
599621946476585728,85
599621946484272000,67
599621946491958272,78
599621946499644544,99
599621946507330816,115
599621946515017088,124
599621946522703360,120
599621946530389632,108
599621946538076032,87
599621946545762304,69
599621946553448576,62
599621946561134848,67
599621946568821120,69
599621946576507392,57
599621946584193664,53
599621946591879936,67
599621946599566208,64
599621946607252608,39
599621946614938880,39
599621946622625152,53
599621946630311424,11
599621946637997696,-106
599621946645683968,-191
599621946653370240,-43
599621946661056512,353
599621946668742784,767
599621946676429184,790
599621946684115456,353
599621946691801728,-18
599621946699488000,-55
599621946707174272,-46
599621946714860544,-62
599621946722546816,2
599621946730233088,23
599621946737919360,-18
599621946745605632,-9
599621946753292032,9
599621946760978304,-2
599621946768664576,2
599621946776350848,18
599621946784037120,20
599621946791723392,20
599621946799409664,25
599621946807095936,13
599621946814782208,4
599621946822468608,39
599621946830154880,73
599621946837841152,55
599621946845527424,48
599621946853213696,64
599621946860899968,62
599621946868586240,71
599621946876272512,92
599621946883958784,78
599621946891645184,73
599621946899331456,97
599621946907017660,83
599621946914704256,78
599621946922390912,104
599621946930077696,99
599621946937764352,67
599621946945451008,64
599621946953137792,85
599621946960824448,64
599621946968511232,32
599621946976197888,36
599621946983884544,34
599621946991571328,13
599621946999257984,20
599621947006944640,34
599621947014631424,32
599621947022318080,30
599621947030004864,34
599621947037691520,39
599621947045378176,41
599621947053064960,53
599621947060751616,60
599621947068438272,34
599621947076125056,27
599621947083811712,73
599621947091498496,85
599621947099185152,48
599621947106871808,41
599621947114558592,57
599621947122245248,62
599621947129931904,60
599621947137618688,60
599621947145305344,55
599621947152992128,50
599621947160678784,53
599621947168365440,53
599621947176052224,48
599621947183738880,48
599621947191425536,48
599621947199112320,36
599621947206798976,25
599621947214485760,48
599621947222172416,78
599621947229859072,83
599621947237545856,78
599621947245232512,78
599621947252919168,67
599621947260605952,46
599621947268292608,32
599621947275979392,30
599621947283666048,32
599621947291352704,30
599621947299039488,25
599621947306726144,23
599621947314412800,20
599621947322099584,20
599621947329786240,23
599621947337473024,20
599621947345159680,2
599621947352846336,-90
599621947360533120,-221
599621947368219776,-182
599621947375906432,159
599621947383593216,649
599621947391279872,894
599621947398966656,600
599621947406653312,124
599621947414339968,-30
599621947422026752,-23
599621947429713408,-73
599621947437400064,-62
599621947445086848,-23
599621947452773504,-46
599621947460460288,-60
599621947468147039,-34
599621947475833344,-27
599621947483519616,-36
599621947491205888,-30
599621947498892160,-20
599621947506578432,-20
599621947514264832,-13
599621947521951104,-6
599621947529637376,-6
599621947537323648,0
599621947545009920,4
599621947552696192,6
599621947560382464,13
599621947568068736,18
599621947575755008,20
599621947583441408,23
599621947591127680,25
599621947598813952,30
599621947606500224,36
599621947614186496,41
599621947621872768,43
599621947629559040,48
599621947637245312,55
599621947644931584,55
599621947652617856,55
599621947660304256,48
599621947667990528,34
599621947675676800,23
599621947683363072,16
599621947691049344,9
599621947698735616,4
599621947706421888,4
599621947714108160,2
599621947721794432,2
599621947729480832,6
599621947737167104,6
599621947744853376,6
599621947752539648,11
599621947760225920,16
599621947767912192,20
599621947775598464,23
599621947783284736,25
599621947790971008,25
599621947798657408,27
599621947806343680,27
599621947814029952,27
599621947821716224,32
599621947829402496,34
599621947837088768,34
599621947844775040,36
599621947852461312,39
599621947860147584,41
599621947867833856,41
599621947875520256,41
599621947883206528,43
599621947890892800,41
599621947898579072,34
599621947906265344,25
599621947913951616,18
599621947921637888,16
599621947929324160,32
599621947937010432,64
599621947944696832,76
599621947952383104,71
599621947960069376,76
599621947967755648,71
599621947975441920,50
599621947983128192,34
599621947990814464,32
599621947998500736,34
599621948006187008,36
599621948013873408,34
599621948021559680,30
599621948029245900,30
599621948036932608,32
599621948044619264,32
599621948052306048,30
599621948059992704,20
599621948067679360,-53
599621948075366144,-194
599621948083052800,-228
599621948090739584,30
599621948098426240,543
599621948106112896,954
599621948113799680,820
599621948121486336,312
599621948129172992,25
599621948136859776,6
599621948144546432,-34
599621948152233216,-69
599621948159919872,-41
599621948167606528,-46
599621948175293312,-60
599621948182979968,-43
599621948190666624,-34
599621948198353408,-39
599621948206040064,-30
599621948213726848,-20
599621948221413504,-20
599621948229100160,-16
599621948236786944,-11
599621948244473600,-9
599621948252160256,-6
599621948259847040,0
599621948267533696,2
599621948275220480,4
599621948282907136,9
599621948290593792,11
599621948298280576,16
599621948305967232,18
599621948313653888,18
599621948321340672,20
599621948329027328,25
599621948336714112,30
599621948344400768,34
599621948352087424,39
599621948359774208,43
599621948367460864,46
599621948375147520,43
599621948382834304,32
599621948390520960,18
599621948398207744,9
599621948405894400,2
599621948413581056,-4
599621948421267840,-6
599621948428954496,-6
599621948436641152,-6
599621948444327936,-2
599621948452014592,-2
599621948459701376,0
599621948467388032,2
599621948475074688,4
599621948482761472,6
599621948490448128,9
599621948498134784,9
599621948505821568,11
599621948513508224,11
599621948521195008,11
599621948528881664,11
599621948536568320,13
599621948544255104,13
599621948551941760,13
599621948559628416,16
599621948567315200,16
599621948575001856,18
599621948582688640,20
599621948590375283,23
599621948598061952,23
599621948605748608,23
599621948613435392,25
599621948621122048,25
599621948628808704,25
599621948636495488,20
599621948644182144,16
599621948651868928,11
599621948659555584,13
599621948667242240,39
599621948674929024,64
599621948682615680,67
599621948690302336,67
599621948697989120,71
599621948705675776,55
599621948713362560,36
599621948721049216,30
599621948728735872,32
599621948736422656,32
599621948744109312,32
599621948751795968,32
599621948759482752,30
599621948767169408,30
599621948774856192,32
599621948782542848,32
599621948790229504,34
599621948797916288,13
599621948805602944,-80
599621948813289600,-217
599621948820976384,-177
599621948828663040,184
599621948836349824,734
599621948844036480,1030
599621948851723136,732
599621948859409920,214
599621948867096576,16
599621948874783232,13
599621948882470016,-32
599621948890156672,-46
599621948897843456,-23
599621948905530112,-36
599621948913216768,-43
599621948920903552,-25
599621948928590208,-20
599621948936276864,-23
599621948943963648,-13
599621948951650304,-6
599621948959337088,-6
599621948967023744,-2
599621948974710400,2
599621948982397184,4
599621948990083840,9
599621948997770496,11
599621949005457280,16
599621949013143936,18
599621949020830720,23
599621949028517376,27
599621949036204032,30
599621949043890816,32
599621949051577472,34
599621949059264128,41
599621949066950912,43
599621949074637568,46
599621949082324352,50
599621949090011008,55
599621949097697664,57
599621949105384448,57
599621949113071104,48
599621949120757760,34
599621949128444544,23
599621949136131200,16
599621949143817984,9
599621949151504662,2
599621949159190912,0
599621949166877184,0
599621949174563456,0
599621949182249728,4
599621949189936000,6
599621949197622400,9
599621949205308672,9
599621949212994944,11
599621949220681216,11
599621949228367488,11
599621949236053760,13
599621949243740032,13
599621949251426304,13
599621949259112576,16
599621949266798976,16
599621949274485248,16
599621949282171520,18
599621949289857792,18
599621949297544064,20
599621949305230336,23
599621949312916608,25
599621949320602880,25
599621949328289152,25
599621949335975424,27
599621949343661824,30
599621949351348096,30
599621949359034368,30
599621949366720640,32
599621949374406912,32
599621949382093184,34
599621949389779456,36
599621949397465728,34
599621949405152000,34
599621949412838400,36
599621949420524672,36
599621949428210944,32
599621949435897216,27
599621949443583488,25
599621949451269760,18
599621949458956032,13
599621949466642304,27
599621949474328576,57
599621949482014976,73
599621949489701248,69
599621949497387520,71
599621949505073792,69
599621949512760064,48
599621949520446336,32
599621949528132608,32
599621949535818880,34
599621949543505152,34
599621949551191424,34
599621949558877824,34
599621949566564096,32
599621949574250368,32
599621949581936640,34
599621949589622912,34
599621949597309184,25
599621949604995456,-36
599621949612681728,-177
599621949620368000,-231
599621949628054400,11
599621949635740672,536
599621949643426944,1003
599621949651113216,936
599621949658799488,411
599621949666485760,48
599621949674172032,13
599621949681858304,-6
599621949689544576,-55
599621949697230976,-39
599621949704917248,-32
599621949712603523,-50
599621949720290048,-43
599621949727976576,-30
599621949735663232,-30
599621949743349760,-27
599621949751036288,-20
599621949758722816,-18
599621949766409472,-13
599621949774096000,-9
599621949781782528,-4
599621949789469184,-2
599621949797155712,2
599621949804842240,6
599621949812528768,9
599621949820215424,11
599621949827901952,13
599621949835588480,18
599621949843275136,20
599621949850961664,25
599621949858648192,30
599621949866334720,34
599621949874021376,36
599621949881707904,41
599621949889394432,48
599621949897081088,53
599621949904767616,55
599621949912454144,53
599621949920140672,43
599621949927827328,32
599621949935513856,23
599621949943200384,13
599621949950887040,9
599621949958573568,4
599621949966260096,2
599621949973946624,2
599621949981633280,4
599621949989319808,6
599621949997006336,6
599621950004692992,9
599621950012379520,11
599621950020066048,11
599621950027752576,11
599621950035439232,13
599621950043125760,13
599621950050812288,16
599621950058498944,16
599621950066185472,13
599621950073872000,11
599621950081558528,13
599621950089245184,18
599621950096931712,20
599621950104618240,23
599621950112304896,25
599621950119991424,25
599621950127677952,25
599621950135364480,25
599621950143051136,25
599621950150737664,27
599621950158424192,30
599621950166110848,30
599621950173797376,30
599621950181483904,32
599621950189170432,32
599621950196857088,32
599621950204543616,32
599621950212230144,32
599621950219916800,32
599621950227603328,32
599621950235289856,32
599621950242976384,32
599621950250663040,32
599621950258349568,32
599621950266036096,32
599621950273722732,32
599621950281409152,32
599621950289095552,30
599621950296781952,25
599621950304468480,20
599621950312154880,16
599621950319841280,13
599621950327527680,25
599621950335214080,55
599621950342900608,71
599621950350587008,67
599621950358273408,67
599621950365959808,57
599621950373646208,39
599621950381332736,27
599621950389019136,30
599621950396705536,32
599621950404391936,32
599621950412078336,27
599621950419764864,30
599621950427451264,30
599621950435137664,30
599621950442824064,30
599621950450510464,30
599621950458196992,11
599621950465883392,-78
599621950473569792,-219
599621950481256192,-194
599621950488942592,154
599621950496628992,691
599621950504315520,998
599621950512001920,730
599621950519688320,214
599621950527374720,-2
599621950535061120,0
599621950542747648,-39
599621950550434048,-48
599621950558120448,-20
599621950565806848,-34
599621950573493248,-41
599621950581179776,-25
599621950588866176,-20
599621950596552576,-25
599621950604238976,-16
599621950611925376,-9
599621950619611904,-6
599621950627298304,-2
599621950634984704,2
599621950642671104,4
599621950650357504,9
599621950658044032,16
599621950665730432,18
599621950673416832,20
599621950681103232,25
599621950688789632,30
599621950696476160,30
599621950704162560,34
599621950711848960,39
599621950719535360,43
599621950727221760,34
599621950734908288,-110
599621950742594688,-316
599621950750281088,-189
599621950757967488,99
599621950765653888,87
599621950773340416,4
599621950781026816,62
599621950788713216,64
599621950796399616,16
599621950804086016,18
599621950811772544,27
599621950819458944,11
599621950827145344,6
599621950834831763,11
599621950842518400,9
599621950850205056,9
599621950857891840,13
599621950865578496,16
599621950873265152,13
599621950880951936,16
599621950888638592,18
599621950896325376,18
599621950904012032,18
599621950911698688,20
599621950919385472,20
599621950927072128,20
599621950934758784,20
599621950942445568,23
599621950950132224,27
599621950957819008,27
599621950965505664,27
599621950973192320,30
599621950980879104,30
599621950988565760,27
599621950996252416,30
599621951003939200,32
599621951011625856,34
599621951019312640,34
599621951026999296,34
599621951034685952,34
599621951042372736,34
599621951050059392,36
599621951057746048,36
599621951065432832,34
599621951073119488,32
599621951080806272,34
599621951088492928,34
599621951096179584,34
599621951103866368,34
599621951111553024,34
599621951119239680,34
599621951126926464,34
599621951134613120,34
599621951142299904,30
599621951149986560,27
599621951157673216,25
599621951165360000,16
599621951173046656,18
599621951180733312,41
599621951188420096,69
599621951196106752,76
599621951203793536,71
599621951211480192,69
599621951219166848,53
599621951226853632,36
599621951234540288,32
599621951242226944,34
599621951249913728,34
599621951257600384,34
599621951265287168,32
599621951272973824,32
599621951280660480,32
599621951288347264,32
599621951296033920,32
599621951303720576,32
599621951311407360,-4
599621951319094016,-124
599621951326780800,-235
599621951334467456,-104
599621951342154112,335
599621951349840896,825
599621951357527552,908
599621951365214208,462
599621951372900992,36
599621951380587648,-32
599621951388274432,-23
599621951395961146,-50
599621951403647360,-16
599621951411333632,2
599621951419019904,-25
599621951426706176,-20
599621951434392448,-4
599621951442078848,-6
599621951449765120,-4
599621951457451392,4
599621951465137664,6
599621951472823936,6
599621951480510208,13
599621951488196480,18
599621951495882752,20
599621951503569024,23
599621951511255424,27
599621951518941696,32
599621951526627968,34
599621951534314240,39
599621951542000512,41
599621951549686784,46
599621951557373056,48
599621951565059328,50
599621951572745600,53
599621951580431872,60
599621951588118272,62
599621951595804544,64
599621951603490816,71
599621951611177088,71
599621951618863360,67
599621951626549632,57
599621951634235904,39
599621951641922176,25
599621951649608448,13
599621951657294848,4
599621951664981120,-2
599621951672667392,-6
599621951680353664,-9
599621951688039936,-6
599621951695726208,-4
599621951703412480,-2
599621951711098752,-2
599621951718785024,-2
599621951726471424,0
599621951734157696,0
599621951741843968,2
599621951749530240,4
599621951757216512,6
599621951764902784,6
599621951772589056,9
599621951780275328,11
599621951787961600,11
599621951795647872,11
599621951803334272,16
599621951811020544,16
599621951818706816,18
599621951826393088,18
599621951834079360,20
599621951841765632,20
599621951849451904,20
599621951857138176,23
599621951864824448,23
599621951872510848,25
599621951880197120,23
599621951887883392,25
599621951895569664,27
599621951903255936,27
599621951910942208,27
599621951918628480,27
599621951926314752,27
599621951934001024,27
599621951941687424,27
599621951949373696,27
599621951957060007,27
599621951964746624,27
599621951972433280,27
599621951980120064,27
599621951987806720,27
599621951995493376,30
599621952003180160,30
599621952010866816,32
599621952018553600,30
599621952026240256,27
599621952033926912,23
599621952041613696,18
599621952049300352,13
599621952056987008,13
599621952064673792,36
599621952072360448,64
599621952080047232,69
599621952087733888,64
599621952095420544,64
599621952103107328,53
599621952110793984,34
599621952118480640,30
599621952126167424,34
599621952133854080,34
599621952141540864,32
599621952149227520,32
599621952156914176,32
599621952164600960,32
599621952172287616,32
599621952179974272,30
599621952187661056,27
599621952195347712,-18
599621952203034496,-150
599621952210721152,-240
599621952218407808,-62
599621952226094592,416
599621952233781248,915
599621952241467904,959
599621952249154688,487
599621952256841344,73
599621952264528128,6
599621952272214784,0
599621952279901440,-48
599621952287588224,-39
599621952295274880,-27
599621952302961536,-48
599621952310648320,-41
599621952318334976,-25
599621952326021760,-30
599621952333708416,-27
599621952341395072,-18
599621952349081856,-16
599621952356768512,-16
599621952364455168,-9
599621952372141952,-4
599621952379828608,-2
599621952387515392,2
599621952395202048,6
599621952402888704,9
599621952410575488,11
599621952418262144,13
599621952425948800,16
599621952433635584,20
599621952441322240,25
599621952449009024,27
599621952456695680,32
599621952464382336,34
599621952472069120,39
599621952479755776,41
599621952487442432,48
599621952495129216,50
599621952502815872,50
599621952510502656,43
599621952518189386,32
599621952525876096,20
599621952533562752,11
599621952541249536,4
599621952548936192,0
599621952556622848,-4
599621952564309632,-4
599621952571996288,-4
599621952579683072,-4
599621952587369728,-2
599621952595056384,2
599621952602743168,4
599621952610429824,2
599621952618116480,2
599621952625803264,4
599621952633489920,6
599621952641176704,6
599621952648863360,6
599621952656550016,11
599621952664236800,11
599621952671923456,11
599621952679610112,11
599621952687296896,11
599621952694983552,16
599621952702670336,20
599621952710356992,20
599621952718043648,20
599621952725730432,23
599621952733417088,23
599621952741103744,25
599621952748790528,25
599621952756477184,27
599621952764163968,27
599621952771850624,30
599621952779537280,30
599621952787224064,30
599621952794910720,30
599621952802597376,30
599621952810284160,30
599621952817970816,30
599621952825657600,30
599621952833344256,30
599621952841030912,30
599621952848717696,30
599621952856404352,27
599621952864091008,30
599621952871777792,30
599621952879464448,30
599621952887151232,30
599621952894837888,30
599621952902524544,30
599621952910211328,30
599621952917897984,30
599621952925584640,30
599621952933271424,30
599621952940958080,30
599621952948644864,30
599621952956331520,30
599621952964018176,30
599621952971704960,30
599621952979391616,27
599621952987078272,25
599621952994765056,18
599621953002451712,9
599621953010138496,9
599621953017825152,36
599621953025511808,67
599621953033198592,69
599621953040885248,67
599621953048571904,67
599621953056258688,55
599621953063945344,36
599621953071632128,30
599621953079318765,32
599621953087005056,32
599621953094691328,32
599621953102377600,32
599621953110063872,30
599621953117750144,30
599621953125436544,30
599621953133122816,30
599621953140809088,25
599621953148495360,-18
599621953156181632,-147
599621953163867904,-244
599621953171554176,-85
599621953179240448,395
599621953186926720,929
599621953194613120,1021
599621953202299392,556
599621953209985664,99
599621953217671936,9
599621953225358208,6
599621953233044480,-53
599621953240730752,-55
599621953248417024,-36
599621953256103296,-55
599621953263789568,-53
599621953271475968,-39
599621953279162240,-39
599621953286848512,-36
599621953294534784,-27
599621953302221056,-25
599621953309907328,-23
599621953317593600,-18
599621953325279872,-13
599621953332966144,-9
599621953340652544,-6
599621953348338816,-2
599621953356025088,0
599621953363711360,2
599621953371397632,6
599621953379083904,11
599621953386770176,13
599621953394456448,16
599621953402142720,20
599621953409829120,25
599621953417515392,30
599621953425201664,34
599621953432887936,39
599621953440574208,46
599621953448260480,50
599621953455946752,48
599621953463633024,43
599621953471319296,36
599621953479005568,23
599621953486691968,13
599621953494378240,6
599621953502064512,0
599621953509750784,-4
599621953517437056,-4
599621953525123328,-6
599621953532809600,-6
599621953540495872,-4
599621953548182144,-2
599621953555868544,0
599621953563554816,2
599621953571241088,2
599621953578927360,4
599621953586613632,4
599621953594299904,4
599621953601986176,6
599621953609672448,6
599621953617358720,6
599621953625045120,9
599621953632731392,11
599621953640417626,13
599621953648104320,13
599621953655790976,16
599621953663477632,13
599621953671164160,13
599621953678850816,18
599621953686537472,20
599621953694224128,18
599621953701910784,23
599621953709597440,23
599621953717283968,23
599621953724970624,23
599621953732657280,25
599621953740343936,25
599621953748030592,25
599621953755717248,27
599621953763403776,27
599621953771090432,25
599621953778777088,27
599621953786463744,27
599621953794150400,27
599621953801837056,27
599621953809523584,25
599621953817210240,25
599621953824896896,27
599621953832583552,27
599621953840270208,27
599621953847956864,27
599621953855643392,27
599621953863330048,25
599621953871016704,25
599621953878703360,27
599621953886390016,30
599621953894076672,30
599621953901763200,30
599621953909449856,30
599621953917136512,27
599621953924823168,27
599621953932509824,27
599621953940196480,25
599621953947883008,23
599621953955569664,16
599621953963256320,11
599621953970942976,27
599621953978629632,55
599621953986316288,71
599621953994002816,67
599621954001689472,64
599621954009376128,55
599621954017062784,36
599621954024749440,27
599621954032435968,30
599621954040122624,32
599621954047809280,30
599621954055495936,27
599621954063182592,30
599621954070869248,30
599621954078555776,27
599621954086242432,27
599621954093929088,27
599621954101615744,4
599621954109302400,-101
599621954116989056,-238
599621954124675584,-166
599621954132362240,235
599621954140048896,774
599621954147735552,991
599621954155422208,626
599621954163108864,131
599621954170795392,-11
599621954178482048,-2
599621954186168704,-46
599621954193855360,-41
599621954201541922,-18
599621954209228288,-36
599621954216914688,-39
599621954224600960,-20
599621954232287360,-18
599621954239973760,-20
599621954247660032,-13
599621954255346432,-9
599621954263032832,-6
599621954270719104,-2
599621954278405504,0
599621954286091904,4
599621954293778176,9
599621954301464576,13
599621954309150848,18
599621954316837248,20
599621954324523648,25
599621954332209920,27
599621954339896320,32
599621954347582720,36
599621954355268992,41
599621954362955392,43
599621954370641792,48
599621954378328064,53
599621954386014464,57
599621954393700864,60
599621954401387136,64
599621954409073536,64
599621954416759936,55
599621954424446208,41
599621954432132608,27
599621954439819008,11
599621954447505280,2
599621954455191680,-4
599621954462878080,-11
599621954470564352,-16
599621954478250752,-16
599621954485937024,-13
599621954493623424,-11
599621954501309824,-9
599621954508996096,-9
599621954516682496,-4
599621954524368896,-2
599621954532055168,-2
599621954539741568,-2
599621954547427968,0
599621954555114240,2
599621954562800640,4
599621954570487040,4
599621954578173312,6
599621954585859712,9
599621954593546112,11
599621954601232384,11
599621954608918784,13
599621954616605184,16
599621954624291456,16
599621954631977856,18
599621954639664128,18
599621954647350528,20
599621954655036928,20
599621954662723200,23
599621954670409600,23
599621954678096000,23
599621954685782272,25
599621954693468672,25
599621954701155072,25
599621954708841344,23
599621954716527744,25
599621954724214144,25
599621954731900416,25
599621954739586816,25
599621954747273216,25
599621954754959488,25
599621954762645866,25
599621954770332544,25
599621954778019200,25
599621954785705984,23
599621954793392640,25
599621954801079296,25
599621954808766080,25
599621954816452736,25
599621954824139520,27
599621954831826176,25
599621954839512832,25
599621954847199616,27
599621954854886272,25
599621954862572928,25
599621954870259712,25
599621954877946368,25
599621954885633152,25
599621954893319808,25
599621954901006464,23
599621954908693248,20
599621954916379904,13
599621954924066560,13
599621954931753344,41
599621954939440000,69
599621954947126784,69
599621954954813440,62
599621954962500096,60
599621954970186880,46
599621954977873536,30
599621954985560192,27
599621954993246976,27
599621955000933632,30
599621955008620416,30
599621955016307072,27
599621955023993728,25
599621955031680512,27
599621955039367168,27
599621955047053824,27
599621955054740608,23
599621955062427264,-32
599621955070114048,-171
599621955077800704,-238
599621955085487360,-13
599621955093174144,487
599621955100860800,917
599621955108547456,836
599621955116234240,325
599621955123920896,-4
599621955131607680,-18
599621955139294336,-30
599621955146980992,-48
599621955154667776,-13
599621955162354432,-16
599621955170041088,-36
599621955177727872,-23
599621955185414528,-11
599621955193101312,-13
599621955200787968,-9
599621955208474624,-4
599621955216161408,-2
599621955223848064,0
599621955231534720,6
599621955239221504,9
599621955246908160,13
599621955254594944,16
599621955262281600,20
599621955269968256,23
599621955277655040,27
599621955285341696,32
599621955293028352,34
599621955300715136,36
599621955308401792,41
599621955316088576,46
599621955323775249,9
599621955331461632,-80
599621955339148032,-67
599621955346834432,62
599621955354520960,87
599621955362207360,48
599621955369893760,64
599621955377580160,69
599621955385266560,34
599621955392953088,20
599621955400639488,18
599621955408325888,4
599621955416012288,-4
599621955423698688,-4
599621955431385216,-6
599621955439071616,-9
599621955446758016,-6
599621955454444416,-4
599621955462130816,-2
599621955469817344,-2
599621955477503744,0
599621955485190144,2
599621955492876544,2
599621955500562944,4
599621955508249472,6
599621955515935872,6
599621955523622272,6
599621955531308672,9
599621955538995072,11
599621955546681472,13
599621955554368000,16
599621955562054400,16
599621955569740800,18
599621955577427200,18
599621955585113600,20
599621955592800128,23
599621955600486528,23
599621955608172928,20
599621955615859328,20
599621955623545728,23
599621955631232256,25
599621955638918656,25
599621955646605056,25
599621955654291456,25
599621955661977856,25
599621955669664384,25
599621955677350784,25
599621955685037184,27
599621955692723584,27
599621955700409984,27
599621955708096512,20
599621955715782912,-69
599621955723469312,-314
599621955731155712,-446
599621955738842112,-198
599621955746528640,62
599621955754215040,27
599621955761901440,-9
599621955769587840,50
599621955777274240,32
599621955784960768,-9
599621955792647168,27
599621955800333568,60
599621955808019968,41
599621955815706368,25
599621955823392896,27
599621955831079296,36
599621955838765696,50
599621955846452096,55
599621955854138496,53
599621955861825024,53
599621955869511424,53
599621955877197824,50
599621955884884284,43
599621955892570752,39
599621955900257280,36
599621955907943936,55
599621955915630464,83
599621955923316992,60
599621955931003520,-55
599621955938690176,-104
599621955946376704,16
599621955954063232,83
599621955961749888,16
599621955969436416,-30
599621955977122944,0
599621955984809472,48
599621955992496128,55
599621956000182656,43
599621956007869184,50
599621956015555840,53
599621956023242368,50
599621956030928896,48
599621956038615424,2
599621956046302080,-131
599621956053988608,-226
599621956061675136,-53
599621956069361792,425
599621956077048320,936
599621956084734848,1000
599621956092421376,533
599621956100108032,104
599621956107794560,30
599621956115481088,20
599621956123167744,-34
599621956130854272,-30
599621956138540800,-16
599621956146227328,-34
599621956153913984,-32
599621956161600512,-18
599621956169287040,-20
599621956176973696,-18
599621956184660224,-9
599621956192346752,-6
599621956200033280,-4
599621956207719936,0
599621956215406464,2
599621956223092992,6
599621956230779648,9
599621956238466176,13
599621956246152704,16
599621956253839232,18
599621956261525888,23
599621956269212416,25
599621956276898944,27
599621956284585600,30
599621956292272128,34
599621956299958656,39
599621956307645184,43
599621956315331840,48
599621956323018368,53
599621956330704896,57
599621956338391552,60
599621956346078080,60
599621956353764608,55
599621956361451136,43
599621956369137792,30
599621956376824320,18
599621956384510848,6
599621956392197504,2
599621956399884032,-2
599621956407570560,-4
599621956415257088,-6
599621956422943744,-4
599621956430630272,-2
599621956438316800,0
599621956446003489,0
599621956453690112,2
599621956461376768,4
599621956469063552,4
599621956476750208,4
599621956484436864,6
599621956492123648,6
599621956499810304,6
599621956507497088,6
599621956515183744,9
599621956522870400,11
599621956530557184,13
599621956538243840,13
599621956545930496,13
599621956553617280,18
599621956561303936,18
599621956568990720,18
599621956576677376,20
599621956584364032,20
599621956592050816,23
599621956599737472,23
599621956607424128,23
599621956615110912,25
599621956622797568,25
599621956630484352,25
599621956638171008,27
599621956645857664,25
599621956653544448,25
599621956661231104,27
599621956668917760,27
599621956676604544,25
599621956684291200,27
599621956691977984,25
599621956699664640,25
599621956707351296,25
599621956715038080,27
599621956722724736,25
599621956730411392,25
599621956738098176,25
599621956745784832,25
599621956753471616,27
599621956761158272,27
599621956768844928,25
599621956776531712,25
599621956784218368,27
599621956791905024,27
599621956799591808,27
599621956807278464,27
599621956814965248,27
599621956822651904,27
599621956830338560,27
599621956838025344,27
599621956845712000,27
599621956853398656,27
599621956861085440,27
599621956868772096,27
599621956876458880,27
599621956884145536,25
599621956891832192,20
599621956899518976,11
599621956907205632,9
599621956914892288,25
599621956922579072,55
599621956930265728,67
599621956937952512,62
599621956945639168,62
599621956953325824,55
599621956961012608,36
599621956968699264,25
599621956976385920,25
599621956984072704,30
599621956991759360,27
599621956999446144,27
599621957007132868,27
599621957014819200,27
599621957022505472,27
599621957030191744,27
599621957037878016,23
599621957045564288,-18
599621957053250688,-145
599621957060936960,-249
599621957068623232,-94
599621957076309504,383
599621957083995776,924
599621957091682048,1037
599621957099368320,580
599621957107054592,110
599621957114740864,6
599621957122427264,-4
599621957130113536,-78
599621957137799808,-80
599621957145486080,-50
599621957153172352,-62
599621957160858624,-62
599621957168544896,-46
599621957176231168,-43
599621957183917440,-41
599621957191603712,-32
599621957199290112,-27
599621957206976384,-25
599621957214662656,-20
599621957222348928,-16
599621957230035200,-11
599621957237721472,-9
599621957245407744,-4
599621957253094016,0
599621957260780288,2
599621957268466688,6
599621957276152960,9
599621957283839232,13
599621957291525504,18
599621957299211776,23
599621957306898048,30
599621957314584320,34
599621957322270592,39
599621957329956864,43
599621957337643264,48
599621957345329536,55
599621957353015808,55
599621957360702080,48
599621957368388352,39
599621957376074624,25
599621957383760896,11
599621957391447168,2
599621957399133440,-4
599621957406819712,-11
599621957414506112,-16
599621957422192384,-13
599621957429878656,-11
599621957437564928,-9
599621957445251200,-6
599621957452937472,-4
599621957460623744,-4
599621957468310016,-2
599621957475996288,0
599621957483682688,0
599621957491368960,0
599621957499055232,2
599621957506741504,2
599621957514427776,4
599621957522114048,6
599621957529800320,6
599621957537486592,9
599621957545172864,11
599621957552859264,11
599621957560545536,11
599621957568231729,13
599621957575918336,16
599621957583604992,18
599621957591291776,18
599621957598978432,18
599621957606665088,20
599621957614351872,20
599621957622038528,20
599621957629725312,20
599621957637411968,23
599621957645098624,23
599621957652785408,23
599621957660472064,23
599621957668158720,23
599621957675845504,23
599621957683532160,23
599621957691218944,23
599621957698905600,23
599621957706592256,23
599621957714279040,23
599621957721965696,23
599621957729652352,23
599621957737339136,23
599621957745025792,23
599621957752712576,23
599621957760399232,23
599621957768085888,23
599621957775772672,25
599621957783459328,25
599621957791145984,23
599621957798832768,23
599621957806519424,25
599621957814206208,25
599621957821892864,27
599621957829579520,27
599621957837266304,25
599621957844952960,27
599621957852639616,27
599621957860326400,27
599621957868013056,27
599621957875699840,25
599621957883386496,25
599621957891073152,25
599621957898759936,25
599621957906446592,23
599621957914133248,18
599621957921820032,11
599621957929506688,9
599621957937193472,25
599621957944880128,55
599621957952566784,67
599621957960253568,62
599621957967940224,62
599621957975626880,53
599621957983313664,34
599621957991000320,25
599621957998687104,25
599621958006373760,27
599621958014060416,25
599621958021747200,25
599621958029433856,25
599621958037120512,25
599621958044807296,25
599621958052493952,25
599621958060180736,20
599621958067867392,-32
599621958075554048,-168
599621958083240832,-251
599621958090927488,-48
599621958098614144,457
599621958106300928,949
599621958113987584,952
599621958121674368,459
599621958129361108,60
599621958137047424,0
599621958144733696,-13
599621958152419968,-60
599621958160106240,-46
599621958167792512,-34
599621958175478912,-53
599621958183165184,-50
599621958190851456,-34
599621958198537728,-34
599621958206224000,-32
599621958213910272,-25
599621958221596544,-20
599621958229282816,-16
599621958236969088,-11
599621958244655488,-6
599621958252341760,-2
599621958260028032,2
599621958267714304,6
599621958275400576,9
599621958283086848,11
599621958290773120,18
599621958298459392,23
599621958306145664,25
599621958313831936,32
599621958321518336,36
599621958329204608,41
599621958336890880,48
599621958344577152,55
599621958352263424,60
599621958359949696,62
599621958367635968,64
599621958375322240,64
599621958383008512,55
599621958390694912,36
599621958398381184,20
599621958406067456,0
599621958413753728,-20
599621958421440000,-67
599621958429126272,-104
599621958436812544,-53
599621958444498816,-4
599621958452185088,-23
599621958459871488,-27
599621958467557760,-11
599621958475244032,-13
599621958482930304,-13
599621958490616576,-13
599621958498302848,-53
599621958505989120,-110
599621958513675392,-80
599621958521361664,0
599621958529048064,11
599621958536734336,-9
599621958544420608,6
599621958552106880,16
599621958559793152,11
599621958567479424,11
599621958575165696,11
599621958582851968,16
599621958590538240,20
599621958598224512,20
599621958605910912,18
599621958613597184,23
599621958621283456,23
599621958628969728,13
599621958636656000,16
599621958644342272,25
599621958652028544,23
599621958659714816,0
599621958667401088,-16
599621958675087488,2
599621958682773760,27
599621958690459973,25
599621958698146688,20
599621958705833344,25
599621958713520128,30
599621958721206784,30
599621958728893440,32
599621958736580224,32
599621958744266880,32
599621958751953664,32
599621958759640320,30
599621958767326976,32
599621958775013760,32
599621958782700416,32
599621958790387072,30
599621958798073856,30
599621958805760512,23
599621958813447296,20
599621958821133952,27
599621958828820608,32
599621958836507392,30
599621958844194048,32
599621958851880704,30
599621958859567488,27
599621958867254144,30
599621958874940928,32
599621958882627584,30
599621958890314240,27
599621958898001024,25
599621958905687680,20
599621958913374336,11
599621958921061120,11
599621958928747776,32
599621958936434560,60
599621958944121216,64
599621958951807872,57
599621958959494656,60
599621958967181312,53
599621958974867968,34
599621958982554752,27
599621958990241408,27
599621958997928192,30
599621959005614848,27
599621959013301504,25
599621959020988288,25
599621959028674944,25
599621959036361600,25
599621959044048384,27
599621959051735040,23
599621959059421824,-25
599621959067108480,-159
599621959074795136,-244
599621959082481920,-48
599621959090168576,446
599621959097855232,903
599621959105542016,869
599621959113228672,369
599621959120915456,6
599621959128602112,-20
599621959136288768,-27
599621959143975552,-53
599621959151662208,-18
599621959159348864,-13
599621959167035648,-39
599621959174722304,-27
599621959182409088,-13
599621959190095744,-16
599621959197782400,-13
599621959205469184,-4
599621959213155840,-2
599621959220842496,0
599621959228529280,6
599621959236215936,11
599621959243902720,13
599621959251589352,20
599621959259275648,23
599621959266961920,25
599621959274648192,30
599621959282334464,32
599621959290020736,39
599621959297707136,43
599621959305393408,48
599621959313079680,55
599621959320765952,60
599621959328452224,64
599621959336138496,71
599621959343824768,76
599621959351511040,80
599621959359197312,80
599621959366883712,76
599621959374569984,62
599621959382256256,39
599621959389942528,20
599621959397628800,9
599621959405315072,-4
599621959413001344,-16
599621959420687616,-18
599621959428373888,-23
599621959436060160,-27
599621959443746560,-25
599621959451432832,-18
599621959459119104,-13
599621959466805376,-13
599621959474491648,-11
599621959482177920,-9
599621959489864192,-9
599621959497550464,-6
599621959505236736,-4
599621959512923136,-2
599621959520609408,-2
599621959528295680,0
599621959535981952,2
599621959543668224,4
599621959551354496,6
599621959559040768,6
599621959566727040,6
599621959574413312,9
599621959582099712,6
599621959589785984,4
599621959597472256,11
599621959605158528,18
599621959612844800,18
599621959620531072,18
599621959628217344,18
599621959635903616,16
599621959643589888,16
599621959651276160,16
599621959658962560,20
599621959666648832,23
599621959674335104,20
599621959682021376,23
599621959689707648,23
599621959697393920,23
599621959705080192,23
599621959712766464,23
599621959720452736,23
599621959728139136,23
599621959735825408,25
599621959743511680,23
599621959751197952,13
599621959758884224,11
599621959766570496,23
599621959774256768,27
599621959781943040,23
599621959789629312,25
599621959797315712,27
599621959805001984,27
599621959812688213,27
599621959820374912,27
599621959828061568,27
599621959835748352,30
599621959843435008,30
599621959851121664,27
599621959858808448,27
599621959866495104,25
599621959874181888,23
599621959881868544,23
599621959889555200,16
599621959897241984,11
599621959904928640,25
599621959912615296,53
599621959920302080,67
599621959927988736,62
599621959935675520,60
599621959943362176,55
599621959951048832,36
599621959958735616,25
599621959966422272,27
599621959974108928,30
599621959981795712,27
599621959989482368,25
599621959997169152,25
599621960004855808,25
599621960012542464,25
599621960020229248,27
599621960027915904,25
599621960035602560,-9
599621960043289344,-127
599621960050976000,-247
599621960058662784,-129
599621960066349440,312
599621960074036096,838
599621960081722880,984
599621960089409536,568
599621960097096192,106
599621960104782976,-2
599621960112469632,-2
599621960120156416,-50
599621960127843072,-46
599621960135529728,-30
599621960143216512,-48
599621960150903168,-48
599621960158589824,-30
599621960166276608,-32
599621960173963264,-30
599621960181650048,-20
599621960189336704,-18
599621960197023360,-16
599621960204710144,-11
599621960212396800,-6
599621960220083456,-4
599621960227770240,0
599621960235456896,4
599621960243143680,6
599621960250830336,6
599621960258516992,9
599621960266203776,16
599621960273890432,23
599621960281577088,27
599621960289263872,34
599621960296950528,39
599621960304637312,46
599621960312323968,50
599621960320010624,57
599621960327697408,62
599621960335384064,64
599621960343070720,64
599621960350757504,55
599621960358444160,39
599621960366130944,23
599621960373817592,11
599621960381503872,0
599621960389190144,-9
599621960396876416,-13
599621960404562688,-18
599621960412248960,-18
599621960419935360,-16
599621960427621632,-16
599621960435307904,-16
599621960442994176,-13
599621960450680448,-9
599621960458366720,-9
599621960466052992,-6
599621960473739264,-4
599621960481425536,-4
599621960489111936,-4
599621960496798208,-2
599621960504484480,0
599621960512170752,0
599621960519857024,2
599621960527543296,4
599621960535229568,6
599621960542915840,9
599621960550602112,9
599621960558288384,9
599621960565974784,11
599621960573661056,16
599621960581347328,18
599621960589033600,18
599621960596719872,18
599621960604406144,18
599621960612092416,20
599621960619778688,20
599621960627464960,20
599621960635151360,23
599621960642837632,23
599621960650523904,20
599621960658210176,23
599621960665896448,23
599621960673582720,23
599621960681268992,23
599621960688955264,23
599621960696641536,23
599621960704327936,23
599621960712014208,23
599621960719700480,23
599621960727386752,23
599621960735073024,25
599621960742759296,23
599621960750445568,25
599621960758131840,25
599621960765818112,25
599621960773504384,23
599621960781190784,25
599621960788877056,23
599621960796563328,23
599621960804249600,25
599621960811935872,25
599621960819622144,25
599621960827308416,25
599621960834994688,25
599621960842680960,25
599621960850367360,25
599621960858053632,25
599621960865739904,25
599621960873426176,25
599621960881112448,25
599621960888798720,25
599621960896484992,25
599621960904171264,23
599621960911857536,20
599621960919543936,13
599621960927230208,6
599621960934916453,16
599621960942603136,48
599621960950289792,64
599621960957976576,60
599621960965663232,57
599621960973349888,48
599621960981036672,25
599621960988723328,16
599621960996410112,25
599621961004096768,27
599621961011783424,25
599621961019470208,23
599621961027156864,23
599621961034843520,23
599621961042530304,23
599621961050216960,25
599621961057903744,23
599621961065590400,2
599621961073277056,-97
599621961080963840,-233
599621961088650496,-187
599621961096337152,194
599621961104023936,765
599621961111710592,1072
599621961119397376,765
599621961127084032,226
599621961134770688,16
599621961142457472,16
599621961150144128,-39
599621961157830784,-64
599621961165517568,-43
599621961173204224,-53
599621961180891008,-62
599621961188577664,-48
599621961196264320,-43
599621961203951104,-43
599621961211637760,-36
599621961219324416,-30
599621961227011200,-27
599621961234697856,-20
599621961242384640,-18
599621961250071296,-13
599621961257757952,-9
599621961265444736,-6
599621961273131392,-4
599621961280818048,0
599621961288504832,4
599621961296191488,6
599621961303878272,11
599621961311564928,16
599621961319251584,20
599621961326938368,25
599621961334625024,34
599621961342311680,39
599621961349998464,43
599621961357685120,50
599621961365371904,57
599621961373058560,60
599621961380745216,57
599621961388432000,46
599621961396118656,30
599621961403805312,18
599621961411492096,4
599621961419178752,-2
599621961426865536,-11
599621961434552192,-16
599621961442238848,-16
599621961449925632,-18
599621961457612288,-20
599621961465298944,-20
599621961472985728,-11
599621961480672384,-9
599621961488359168,-6
599621961496045836,-2
599621961503732096,0
599621961511418368,0
599621961519104640,0
599621961526790912,2
599621961534477184,2
599621961542163584,2
599621961549849856,2
599621961557536128,4
599621961565222400,4
599621961572908672,6
599621961580594944,9
599621961588281216,11
599621961595967488,11
599621961603653760,13
599621961611340160,16
599621961619026432,18
599621961626712704,18
599621961634398976,18
599621961642085248,18
599621961649771520,20
599621961657457792,20
599621961665144064,20
599621961672830336,20
599621961680516608,23
599621961688203008,23
599621961695889280,23
599621961703575552,23
599621961711261824,23
599621961718948096,23
599621961726634368,23
599621961734320640,23
599621961742006912,23
599621961749693184,23
599621961757379584,23
599621961765065856,23
599621961772752128,23
599621961780438400,23
599621961788124672,23
599621961795810944,23
599621961803497216,23
599621961811183488,23
599621961818869760,23
599621961826556160,23
599621961834242432,23
599621961841928704,23
599621961849614976,25
599621961857301248,25
599621961864987520,23
599621961872673792,23
599621961880360064,25
599621961888046336,23
599621961895732608,23
599621961903419008,23
599621961911105280,23
599621961918791552,20
599621961926477824,16
599621961934164096,11
599621961941850368,6
599621961949536640,4
599621961957222912,27
599621961964909184,57
599621961972595584,64
599621961980281856,62
599621961987968128,60
599621961995654400,41
599621962003340672,18
599621962011026944,13
599621962018713216,18
599621962026399488,18
599621962034085760,18
599621962041772160,20
599621962049458432,20
599621962057144697,18
599621962064831360,18
599621962072518016,18
599621962080204800,13
599621962087891456,-34
599621962095578112,-171
599621962103264896,-256
599621962110951552,-62
599621962118638336,436
599621962126324992,926
599621962134011648,933
599621962141698432,448
599621962149385088,50
599621962157071744,-11
599621962164758528,-27
599621962172445184,-69
599621962180131968,-50
599621962187818624,-39
599621962195505280,-60
599621962203192064,-53
599621962210878720,-39
599621962218565376,-41
599621962226252160,-36
599621962233938816,-27
599621962241625600,-23
599621962249312256,-18
599621962256998912,-13
599621962264685696,-11
599621962272372352,-6
599621962280059008,0
599621962287745792,2
599621962295432448,6
599621962303119232,11
599621962310805888,4
599621962318492544,2
599621962326179328,9
599621962333865984,16
599621962341552640,20
599621962349239424,34
599621962356926080,50
599621962364612864,62
599621962372299520,69
599621962379986176,76
599621962387672960,80
599621962395359616,78
599621962403046272,64
599621962410733056,46
599621962418419712,27
599621962426106496,11
599621962433793152,-4
599621962441479808,-16
599621962449166592,-18
599621962456853248,-20
599621962464539904,-23
599621962472226688,-23
599621962479913344,-20
599621962487600128,-18
599621962495286784,-16
599621962502973440,-13
599621962510660224,-9
599621962518346880,-4
599621962526033536,-4
599621962533720320,-4
599621962541406976,-4
599621962549093760,0
599621962556780416,0
599621962564467072,0
599621962572153856,2
599621962579840512,4
599621962587527168,6
599621962595213952,6
599621962602900608,6
599621962610587392,9
599621962618274076,11
599621962625960320,11
599621962633646592,13
599621962641332864,13
599621962649019136,16
599621962656705408,18
599621962664391808,16
599621962672078080,18
599621962679764352,20
599621962687450624,18
599621962695136896,20
599621962702823168,23
599621962710509440,23
599621962718195712,23
599621962725881984,20
599621962733568384,20
599621962741254656,23
599621962748940928,23
599621962756627200,23
599621962764313472,23
599621962771999744,23
599621962779686016,25
599621962787372288,25
599621962795058560,23
599621962802744832,23
599621962810431232,25
599621962818117504,25
599621962825803776,25
599621962833490048,25
599621962841176320,27
599621962848862592,25
599621962856548864,23
599621962864235136,25
599621962871921408,27
599621962879607808,25
599621962887294080,23
599621962894980352,23
599621962902666624,16
599621962910352896,9
599621962918039168,23
599621962925725440,53
599621962933411712,69
599621962941097984,62
599621962948784384,60
599621962956470656,55
599621962964156928,39
599621962971843200,27
599621962979529472,27
599621962987215744,30
599621962994902016,27
599621963002588288,25
599621963010274560,27
599621963017960832,30
599621963025647232,25
599621963033333504,25
599621963041019776,25
599621963048706048,11
599621963056392320,-78
599621963064078592,-217
599621963071764864,-189
599621963079451136,168
599621963087137408,691
599621963094823808,933
599621963102510080,610
599621963110196352,113
599621963117882624,-48
599621963125568896,-30
599621963133255168,-57
599621963140941440,-30
599621963148627712,6
599621963156313984,-18
599621963164000384,-25
599621963171686656,-4
599621963179372937,-6
599621963187059456,-53
599621963194745984,-217
599621963202432640,-429
599621963210119168,-362
599621963217805696,-67
599621963225492224,30
599621963233178880,-13
599621963240865408,27
599621963248551936,67
599621963256238592,46
599621963263925120,53
599621963271611648,71
599621963279298176,71
599621963286984832,71
599621963294671360,83
599621963302357888,90
599621963310044544,92
599621963317731072,101
599621963325417600,108
599621963333104128,110
599621963340790784,115
599621963348477312,117
599621963356163840,115
599621963363850496,101
599621963371537024,80
599621963379223552,55
599621963386910080,36
599621963394596736,23
599621963402283264,13
599621963409969792,2
599621963417656448,0
599621963425342976,0
599621963433029504,-2
599621963440716032,-2
599621963448402688,2
599621963456089216,2
599621963463775744,2
599621963471462400,4
599621963479148928,4
599621963486835456,6
599621963494521984,6
599621963502208640,9
599621963509895168,9
599621963517581696,11
599621963525268352,13
599621963532954880,13
599621963540641408,16
599621963548327936,18
599621963556014592,18
599621963563701120,18
599621963571387648,20
599621963579074304,23
599621963586760832,25
599621963594447360,25
599621963602133888,25
599621963609820544,25
599621963617507072,27
599621963625193600,27
599621963632880256,27
599621963640566784,30
599621963648253312,30
599621963655939840,27
599621963663626496,30
599621963671313024,32
599621963678999552,30
599621963686686208,27
599621963694372736,30
599621963702059264,30
599621963709745792,30
599621963717432448,30
599621963725118976,30
599621963732805504,30
599621963740492146,30
599621963748178560,30
599621963755864960,32
599621963763551360,30
599621963771237888,30
599621963778924288,30
599621963786610688,30
599621963794297088,30
599621963801983488,27
599621963809670016,30
599621963817356416,30
599621963825042816,30
599621963832729216,30
599621963840415616,30
599621963848102144,30
599621963855788544,25
599621963863474944,20
599621963871161344,13
599621963878847744,16
599621963886534272,43
599621963894220672,69
599621963901907072,69
599621963909593472,64
599621963917279872,62
599621963924966400,50
599621963932652800,34
599621963940339200,30
599621963948025600,30
599621963955712000,30
599621963963398400,27
599621963971084928,27
599621963978771328,27
599621963986457728,27
599621963994144128,27
599621964001830528,27
599621964009517056,18
599621964017203456,-48
599621964024889856,-189
599621964032576256,-231
599621964040262656,32
599621964047949184,556
599621964055635584,982
599621964063321984,862
599621964071008384,344
599621964078694784,27
599621964086381312,4
599621964094067712,-23
599621964101754112,-57
599621964109440512,-39
599621964117126912,-39
599621964124813440,-55
599621964132499840,-46
599621964140186240,-34
599621964147872640,-34
599621964155559040,-32
599621964163245568,-25
599621964170931968,-20
599621964178618368,-18
599621964186304768,-16
599621964193991168,-11
599621964201677696,-6
599621964209364096,-2
599621964217050496,0
599621964224736896,4
599621964232423296,6
599621964240109824,11
599621964247796224,13
599621964255482624,18
599621964263169024,25
599621964270855424,27
599621964278541952,30
599621964286228352,39
599621964293914752,48
599621964301601177,53
599621964309287424,60
599621964316973696,62
599621964324659968,57
599621964332346240,46
599621964340032512,34
599621964347718912,20
599621964355405184,9
599621964363091456,-2
599621964370777728,-9
599621964378464000,-13
599621964386150272,-16
599621964393836544,-16
599621964401522816,-13
599621964409209088,-11
599621964416895488,-9
599621964424581760,-6
599621964432268032,-6
599621964439954304,-4
599621964447640576,-2
599621964455326848,0
599621964463013120,-2
599621964470699392,0
599621964478385664,2
599621964486071936,2
599621964493758336,4
599621964501444608,6
599621964509130880,6
599621964516817152,9
599621964524503424,9
599621964532189696,11
599621964539875968,13
599621964547562240,13
599621964555248512,13
599621964562934912,16
599621964570621184,18
599621964578307456,18
599621964585993728,18
599621964593680000,20
599621964601366272,20
599621964609052544,23
599621964616738816,23
599621964624425088,23
599621964632111488,23
599621964639797760,23
599621964647484032,23
599621964655170304,25
599621964662856576,25
599621964670542848,23
599621964678229120,23
599621964685915392,25
599621964693601664,25
599621964701287936,23
599621964708974336,25
599621964716660608,25
599621964724346880,23
599621964732033152,23
599621964739719424,25
599621964747405696,25
599621964755091968,25
599621964762778240,25
599621964770464512,25
599621964778150912,25
599621964785837184,25
599621964793523456,25
599621964801209728,25
599621964808896000,25
599621964816582272,25
599621964824268544,25
599621964831954816,25
599621964839641088,25
599621964847327488,23
599621964855013760,23
599621964862700038,25
599621964870386688,25
599621964878073344,25
599621964885760128,20
599621964893446784,18
599621964901133440,9
599621964908820224,6
599621964916506880,30
599621964924193664,60
599621964931880320,64
599621964939566976,60
599621964947253760,60
599621964954940416,50
599621964962627072,32
599621964970313856,20
599621964978000512,25
599621964985687296,27
599621964993373952,25
599621965001060608,23
599621965008747392,25
599621965016434048,25
599621965024120704,23
599621965031807488,23
599621965039494144,20
599621965047180928,-20
599621965054867584,-150
599621965062554240,-254
599621965070241024,-94
599621965077927680,385
599621965085614336,929
599621965093301120,1035
599621965100987776,575
599621965108674560,110
599621965116361216,9
599621965124047872,2
599621965131734656,-62
599621965139421312,-67
599621965147107968,-48
599621965154794752,-64
599621965162481408,-64
599621965170168192,-48
599621965177854848,-48
599621965185541504,-46
599621965193228288,-36
599621965200914944,-32
599621965208601600,-32
599621965216288384,-25
599621965223975040,-23
599621965231661824,-18
599621965239348480,-13
599621965247035136,-11
599621965254721920,-9
599621965262408576,-4
599621965270095232,-2
599621965277782016,2
599621965285468672,6
599621965293155456,11
599621965300842112,16
599621965308528768,23
599621965316215552,27
599621965323902208,6
599621965331588864,-90
599621965339275648,-120
599621965346962304,18
599621965354649088,83
599621965362335744,30
599621965370022400,32
599621965377709184,46
599621965385395840,16
599621965393082496,-20
599621965400769280,-50
599621965408455936,-41
599621965416142720,-27
599621965423829421,-41
599621965431515776,-32
599621965439202176,-2
599621965446888576,-4
599621965454575104,-11
599621965462261504,-2
599621965469947904,4
599621965477634304,2
599621965485320704,0
599621965493007232,0
599621965500693632,4
599621965508380032,9
599621965516066432,9
599621965523752832,9
599621965531439360,11
599621965539125760,11
599621965546812160,11
599621965554498560,13
599621965562184960,13
599621965569871488,16
599621965577557888,18
599621965585244288,20
599621965592930688,23
599621965600617088,23
599621965608303616,23
599621965615990016,23
599621965623676416,23
599621965631362816,23
599621965639049216,25
599621965646735616,27
599621965654422144,27
599621965662108544,25
599621965669794944,27
599621965677481344,27
599621965685167744,25
599621965692854272,25
599621965700540672,27
599621965708227072,27
599621965715913472,30
599621965723599872,27
599621965731286400,27
599621965738972800,27
599621965746659200,27
599621965754345600,27
599621965762032000,27
599621965769718528,25
599621965777404928,25
599621965785091328,25
599621965792777728,27
599621965800464128,27
599621965808150656,27
599621965815837056,27
599621965823523456,27
599621965831209856,30
599621965838896256,30
599621965846582784,27
599621965854269184,27
599621965861955584,27
599621965869641984,25
599621965877328384,25
599621965885014912,27
599621965892701312,27
599621965900387712,25
599621965908074112,23
599621965915760512,18
599621965923447040,11
599621965931133440,20
599621965938819840,50
599621965946506240,69
599621965954192640,64
599621965961879168,60
599621965969565568,55
599621965977251968,39
599621965984938456,23
599621965992625024,25
599621966000311552,30
599621966007998208,27
599621966015684736,25
599621966023371264,25
599621966031057792,27
599621966038744448,25
599621966046430976,25
599621966054117504,25
599621966061804160,4
599621966069490688,-94
599621966077177216,-233
599621966084863744,-182
599621966092550400,198
599621966100236928,730
599621966107923456,963
599621966115610112,621
599621966123296640,127
599621966130983168,-25
599621966138669696,-18
599621966146356352,-57
599621966154042880,-39
599621966161729408,-9
599621966169416064,-34
599621966177102592,-39
599621966184789120,-18
599621966192475648,-16
599621966200162304,-18
599621966207848832,-9
599621966215535360,-4
599621966223222016,-2
599621966230908544,2
599621966238595072,9
599621966246281600,11
599621966253968256,16
599621966261654784,20
599621966269341312,23
599621966277027968,27
599621966284714496,34
599621966292401024,36
599621966300087552,41
599621966307774208,48
599621966315460736,55
599621966323147264,57
599621966330833920,64
599621966338520448,73
599621966346206976,78
599621966353893504,83
599621966361580160,87
599621966369266688,87
599621966376953216,80
599621966384639872,60
599621966392326400,39
599621966400012928,20
599621966407699456,4
599621966415386112,-6
599621966423072640,-13
599621966430759168,-20
599621966438445824,-23
599621966446132352,-20
599621966453818880,-20
599621966461505408,-16
599621966469192064,-13
599621966476878592,-13
599621966484565120,-13
599621966492251776,-9
599621966499938304,-6
599621966507624832,-6
599621966515311360,-4
599621966522998016,-2
599621966530684544,0
599621966538371072,2
599621966546057661,2
599621966553744128,2
599621966561430656,4
599621966569117312,6
599621966576803840,9
599621966584490368,13
599621966592176896,11
599621966599863552,11
599621966607550080,13
599621966615236608,16
599621966622923264,16
599621966630609792,16
599621966638296320,18
599621966645982848,18
599621966653669504,20
599621966661356032,20
599621966669042560,23
599621966676729216,25
599621966684415744,23
599621966692102272,23
599621966699788800,25
599621966707475456,25
599621966715161984,25
599621966722848512,25
599621966730535168,25
599621966738221696,25
599621966745908224,27
599621966753594752,30
599621966761281408,30
599621966768967936,27
599621966776654464,27
599621966784341120,30
599621966792027648,30
599621966799714176,27
599621966807400704,30
599621966815087360,30
599621966822773888,30
599621966830460416,32
599621966838147072,32
599621966845833600,32
599621966853520128,30
599621966861206656,30
599621966868893312,25
599621966876579840,23
599621966884266368,16
599621966891953024,16
599621966899639552,34
599621966907326080,64
599621966915012608,71
599621966922699264,67
599621966930385792,62
599621966938072320,53
599621966945758976,36
599621966953445504,30
599621966961132032,30
599621966968818560,32
599621966976505216,32
599621966984191744,30
599621966991878272,27
599621966999564928,30
599621967007251456,30
599621967014937984,27
599621967022624512,23
599621967030311168,-20
599621967037997696,-147
599621967045684224,-238
599621967053370880,-60
599621967061057408,413
599621967068743936,882
599621967076430464,894
599621967084117120,427
599621967091803648,43
599621967099490176,-11
599621967107176870,-20
599621967114863232,-50
599621967122549632,-23
599621967130236032,-20
599621967137922560,-41
599621967145608960,-32
599621967153295360,-20
599621967160981760,-25
599621967168668160,-20
599621967176354688,-13
599621967184041088,-11
599621967191727488,-6
599621967199413888,-2
599621967207100288,2
599621967214786816,4
599621967222473216,9
599621967230159616,13
599621967237846016,16
599621967245532416,18
599621967253218944,20
599621967260905344,25
599621967268591744,27
599621967276278144,34
599621967283964544,39
599621967291651072,43
599621967299337472,50
599621967307023872,57
599621967314710272,62
599621967322396672,67
599621967330083072,69
599621967337769600,67
599621967345456000,57
599621967353142400,43
599621967360828800,25
599621967368515200,11
599621967376201728,0
599621967383888128,-9
599621967391574528,-13
599621967399260928,-13
599621967406947328,-13
599621967414633856,-13
599621967422320256,-13
599621967430006656,-11
599621967437693056,-9
599621967445379456,-4
599621967453065984,-4
599621967460752384,-2
599621967468438784,-2
599621967476125184,-2
599621967483811584,-2
599621967491498112,0
599621967499184512,0
599621967506870912,2
599621967514557312,2
599621967522243712,4
599621967529930240,6
599621967537616640,9
599621967545303040,9
599621967552989440,11
599621967560675840,11
599621967568362368,13
599621967576048768,13
599621967583735168,16
599621967591421568,16
599621967599107968,16
599621967606794496,18
599621967614480896,20
599621967622167296,20
599621967629853696,20
599621967637540096,20
599621967645226624,23
599621967652913024,25
599621967660599424,23
599621967668285901,23
599621967675972224,23
599621967683658496,23
599621967691344768,23
599621967699031040,23
599621967706717312,23
599621967714403712,23
599621967722089984,23
599621967729776256,20
599621967737462528,20
599621967745148800,23
599621967752835072,23
599621967760521344,23
599621967768207616,23
599621967775893888,25
599621967783580288,25
599621967791266560,23
599621967798952832,23
599621967806639104,23
599621967814325376,23
599621967822011648,23
599621967829697920,25
599621967837384192,25
599621967845070464,23
599621967852756736,25
599621967860443136,27
599621967868129408,25
599621967875815680,23
599621967883501952,20
599621967891188224,13
599621967898874496,6
599621967906560768,16
599621967914247040,43
599621967921933312,64
599621967929619712,62
599621967937305984,60
599621967944992256,57
599621967952678528,41
599621967960364800,25
599621967968051072,25
599621967975737344,27
599621967983423616,25
599621967991109888,23
599621967998796288,23
599621968006482560,25
599621968014168832,25
599621968021855104,25
599621968029541376,23
599621968037227648,11
599621968044913920,-71
599621968052600192,-217
599621968060286464,-221
599621968067972736,97
599621968075659136,658
599621968083345408,1058
599621968091031680,864
599621968098717952,321
599621968106404224,30
599621968114090496,11
599621968121776768,-30
599621968129463040,-69
599621968137149312,-50
599621968144835712,-55
599621968152521984,-69
599621968160208256,-55
599621968167894528,-48
599621968175580800,-48
599621968183267072,-41
599621968190953344,-34
599621968198639616,-34
599621968206325888,-30
599621968214012288,-23
599621968221698560,-20
599621968229384762,-18
599621968237071360,-13
599621968244758016,-11
599621968252444800,-6
599621968260131456,-4
599621968267818112,0
599621968275504896,2
599621968283191552,6
599621968290878336,11
599621968298564992,16
599621968306251648,23
599621968313938432,30
599621968321625088,36
599621968329311744,41
599621968336998528,48
599621968344685184,53
599621968352371968,53
599621968360058624,46
599621968367745280,34
599621968375432064,20
599621968383118720,6
599621968390805376,-2
599621968398492160,-9
599621968406178816,-13
599621968413865600,-16
599621968421552256,-18
599621968429238912,-16
599621968436925696,-13
599621968444612352,-13
599621968452299008,-11
599621968459985792,-9
599621968467672448,-4
599621968475359232,-4
599621968483045888,-2
599621968490732544,-2
599621968498419328,-2
599621968506105984,-2
599621968513792640,2
599621968521479424,2
599621968529166080,2
599621968536852864,2
599621968544539520,4
599621968552226176,6
599621968559912960,9
599621968567599616,9
599621968575286272,9
599621968582973056,11
599621968590659712,11
599621968598346496,13
599621968606033152,13
599621968613719808,16
599621968621406592,13
599621968629093248,16
599621968636779904,16
599621968644466688,18
599621968652153344,18
599621968659840128,18
599621968667526784,18
599621968675213440,18
599621968682900224,18
599621968690586880,18
599621968698273536,20
599621968705960320,20
599621968713646976,18
599621968721333760,18
599621968729020416,18
599621968736707072,16
599621968744393856,13
599621968752080512,16
599621968759767168,18
599621968767453952,18
599621968775140608,18
599621968782827392,20
599621968790514145,20
599621968798200576,20
599621968805886976,18
599621968813573376,18
599621968821259904,20
599621968828946304,20
599621968836632704,20
599621968844319104,20
599621968852005504,20
599621968859692032,23
599621968867378432,20
599621968875064832,20
599621968882751232,20
599621968890437632,20
599621968898124160,23
599621968905810560,23
599621968913496960,23
599621968921183360,25
599621968928869760,20
599621968936556288,16
599621968944242688,16
599621968951929088,9
599621968959615488,4
599621968967301888,18
599621968974988416,48
599621968982674816,64
599621968990361216,60
599621968998047616,57
599621969005734016,48
599621969013420416,27
599621969021106944,18
599621969028793344,23
599621969036479744,23
599621969044166144,20
599621969051852544,23
599621969059539072,23
599621969067225472,20
599621969074911872,20
599621969082598272,20
599621969090284672,18
599621969097971200,-11
599621969105657600,-124
599621969113344000,-251
599621969121030400,-150
599621969128716800,279
599621969136403328,811
599621969144089728,979
599621969151776128,582
599621969159462528,110
599621969167148928,-13
599621969174835456,-13
599621969182521856,-60
599621969190208256,-50
599621969197894656,-30
599621969205581056,-48
599621969213267584,-48
599621969220953984,-32
599621969228640384,-34
599621969236326784,-32
599621969244013184,-23
599621969251699712,-20
599621969259386112,-20
599621969267072512,-16
599621969274758912,-9
599621969282445312,-6
599621969290131840,-2
599621969297818240,4
599621969305504640,6
599621969313191040,4
599621969320877440,9
599621969328563968,20
599621969336250368,27
599621969343936768,30
599621969351623180,34
599621969359309696,43
599621969366996224,50
599621969374682880,55
599621969382369408,60
599621969390055936,62
599621969397742464,64
599621969405429120,69
599621969413115648,67
599621969420802176,50
599621969428488832,34
599621969436175360,13
599621969443861888,-6
599621969451548416,-16
599621969459235072,-16
599621969466921600,-20
599621969474608128,-25
599621969482294784,-20
599621969489981312,-20
599621969497667840,-20
599621969505354368,-18
599621969513041024,-16
599621969520727552,-16
599621969528414080,-11
599621969536100736,-9
599621969543787264,-9
599621969551473792,-6
599621969559160320,-4
599621969566846976,-4
599621969574533504,-4
599621969582220032,-2
599621969589906688,0
599621969597593216,2
599621969605279744,4
599621969612966272,6
599621969620652928,6
599621969628339456,9
599621969636025984,9
599621969643712640,11
599621969651399168,11
599621969659085696,13
599621969666772224,16
599621969674458880,16
599621969682145408,16
599621969689831936,18
599621969697518592,20
599621969705205120,20
599621969712891648,20
599621969720578176,20
599621969728264832,20
599621969735951360,20
599621969743637888,23
599621969751324544,20
599621969759011072,20
599621969766697600,20
599621969774384128,20
599621969782070784,23
599621969789757312,23
599621969797443840,23
599621969805130496,23
599621969812817024,23
599621969820503552,25
599621969828190080,23
599621969835876736,23
599621969843563264,25
599621969851249792,25
599621969858936448,25
599621969866622976,25
599621969874309504,25
599621969881996032,25
599621969889682688,20
599621969897369216,13
599621969905055744,18
599621969912742385,39
599621969920428672,62
599621969928114944,69
599621969935801216,62
599621969943487488,57
599621969951173760,48
599621969958860160,34
599621969966546432,27
599621969974232704,27
599621969981918976,25
599621969989605248,25
599621969997291520,25
599621970004977792,23
599621970012664064,23
599621970020350336,25
599621970028036736,25
599621970035723008,23
599621970043409280,-11
599621970051095552,-131
599621970058781824,-238
599621970066468096,-99
599621970074154368,342
599621970081840640,811
599621970089526912,862
599621970097213184,418
599621970104899584,18
599621970112585856,-39
599621970120272128,-34
599621970127958400,-60
599621970135644672,-18
599621970143330944,-4
599621970151017216,-34
599621970158703488,-27
599621970166389760,-6
599621970174076160,-11
599621970181762432,-11
599621970189448704,-2
599621970197134976,0
599621970204821248,2
599621970212507520,6
599621970220193792,11
599621970227880064,16
599621970235566336,20
599621970243252736,23
599621970250939008,25
599621970258625280,30
599621970266311552,34
599621970273997824,39
599621970281684096,41
599621970289370368,46
599621970297056640,53
599621970304742912,60
599621970312429184,64
599621970320115584,71
599621970327801856,76
599621970335488128,78
599621970343174400,80
599621970350860672,78
599621970358546944,67
599621970366233216,46
599621970373919488,25
599621970381605760,9
599621970389292160,-2
599621970396978432,-11
599621970404664704,-18
599621970412350976,-20
599621970420037248,-20
599621970427723520,-20
599621970435409792,-20
599621970443096064,-18
599621970450782336,-16
599621970458468736,-13
599621970466155008,-9
599621970473841246,-9
599621970481527936,-6
599621970489214592,-6
599621970496901376,-4
599621970504588032,-2
599621970512274688,-4
599621970519961472,-4
599621970527648128,0
599621970535334912,0
599621970543021568,2
599621970550708224,2
599621970558395008,6
599621970566081664,6
599621970573768320,9
599621970581455104,9
599621970589141760,11
599621970596828544,11
599621970604515200,13
599621970612201856,13
599621970619888640,13
599621970627575296,16
599621970635261952,16
599621970642948736,16
599621970650635392,16
599621970658322176,16
599621970666008832,18
599621970673695488,18
599621970681382272,18
599621970689068928,18
599621970696755584,18
599621970704442368,18
599621970712129024,20
599621970719815808,18
599621970727502464,18
599621970735189120,20
599621970742875904,20
599621970750562560,20
599621970758249216,20
599621970765936000,20
599621970773622656,20
599621970781309440,23
599621970788996096,20
599621970796682752,20
599621970804369536,20
599621970812056192,23
599621970819742848,23
599621970827429632,23
599621970835116288,23
599621970842803072,18
599621970850489728,16
599621970858176384,11
599621970865863168,6
599621970873549824,9
599621970881236480,34
599621970888923264,60
599621970896609920,60
599621970904296704,55
599621970911983360,57
599621970919670016,43
599621970927356800,25
599621970935043456,20
599621970942730112,23
599621970950416896,23
599621970958103552,20
599621970965790336,23
599621970973476992,20
599621970981163648,20
599621970988850432,23
599621970996537088,23
599621971004223744,11
599621971011910528,-57
599621971019597184,-203
599621971027283968,-240
599621971034970625,34
599621971042656896,575
599621971050343168,1009
599621971058029440,887
599621971065715712,360
599621971073401984,34
599621971081088384,2
599621971088774656,-27
599621971096460928,-67
599621971104147200,-48
599621971111833472,-50
599621971119519744,-67
599621971127206016,-53
599621971134892288,-43
599621971142578560,-46
599621971150264960,-39
599621971157951232,-32
599621971165637504,-30
599621971173323776,-25
599621971181010048,-18
599621971188696320,-16
599621971196382592,-13
599621971204068864,-6
599621971211755136,-4
599621971219441408,-2
599621971227127808,2
599621971234814080,6
599621971242500352,9
599621971250186624,13
599621971257872896,18
599621971265559168,23
599621971273245440,30
599621971280931712,34
599621971288617984,41
599621971296304384,48
599621971303990656,53
599621971311676928,57
599621971319363200,60
599621971327049472,50
599621971334735744,36
599621971342422016,25
599621971350108288,11
599621971357794560,0
599621971365480960,-6
599621971373167232,-11
599621971380853504,-16
599621971388539776,-18
599621971396226048,-16
599621971403912320,-16
599621971411598592,-13
599621971419284864,-11
599621971426971136,-9
599621971434657408,-6
599621971442343808,-4
599621971450030080,-4
599621971457716352,-2
599621971465402624,-2
599621971473088896,0
599621971480775168,0
599621971488461440,0
599621971496147712,2
599621971503833984,2
599621971511520384,4
599621971519206656,4
599621971526892928,4
599621971534579200,6
599621971542265472,9
599621971549951744,9
599621971557638016,11
599621971565324288,13
599621971573010560,13
599621971580696960,16
599621971588383232,16
599621971596069486,16
599621971603756160,16
599621971611442816,18
599621971619129600,18
599621971626816256,16
599621971634502912,16
599621971642189696,18
599621971649876352,18
599621971657563136,18
599621971665249792,16
599621971672936448,16
599621971680623232,16
599621971688309888,16
599621971695996544,16
599621971703683328,18
599621971711369984,18
599621971719056768,20
599621971726743424,20
599621971734430080,20
599621971742116864,20
599621971749803520,18
599621971757490176,18
599621971765176960,20
599621971772863616,20
599621971780550400,20
599621971788237056,20
599621971795923712,23
599621971803610496,23
599621971811297152,20
599621971818983808,20
599621971826670592,20
599621971834357248,23
599621971842044032,23
599621971849730688,20
599621971857417344,20
599621971865104128,18
599621971872790784,13
599621971880477440,9
599621971888164224,6
599621971895850880,18
599621971903537664,43
599621971911224320,60
599621971918910976,57
599621971926597760,55
599621971934284416,53
599621971941971072,36
599621971949657856,25
599621971957344512,25
599621971965031296,27
599621971972717952,27
599621971980404608,27
599621971988091392,25
599621971995778048,20
599621972003464704,18
599621972011151488,18
599621972018838144,18
599621972026524928,-6
599621972034211584,-113
