599621853769082240,4486
599622099740773376,13
599622099748460032,13
599622099756146688,16
599622099763833472,16
599622099771520128,18
599622099779206912,18
599622099786893568,18
599622099794580224,18
599622099802267008,20
599622099809953664,20
599622099817640320,20
599622099825327104,23
599622099833013760,23
599622099840700544,20
599622099848387200,23
599622099856073856,23
599622099863760640,23
599622099871447296,23
599622099879133952,23
599622099886820736,23
599622099894507392,25
599622099902194176,25
599622099909880832,23
599622099917567488,18
599622099925254272,13
599622099932940928,9
599622099940627584,6
599622099948314368,20
599622099956001024,48
599622099963687808,64
599622099971374464,62
599622099979061120,62
599622099986747904,57
599622099994434560,41
599622100002121216,27
599622100009808000,25
599622100017494656,27
599622100025181440,27
599622100032868096,27
599622100040554752,25
599622100048241536,27
599622100055928192,25
599622100063614848,25
599622100071301632,25
599622100078988288,18
599622100086675072,-34
599622100094361735,-168
599622100102048384,-244
599622100109735040,-62
599622100117421824,418
599622100125108480,926
599622100132795136,979
599622100140481920,529
599622100148168576,140
599622100155855360,41
599622100163542016,-20
599622100171228672,-78
599622100178915456,-53
599622100186602112,-43
599622100194288768,-64
599622100201975552,-57
599622100209662208,-43
599622100217348992,-48
599622100225035648,-43
599622100232722304,-32
599622100240409088,-30
599622100248095744,-27
599622100255782400,-23
599622100263469184,-18
599622100271155840,-13
599622100278842624,-9
599622100286529280,-4
599622100294215936,-2
599622100301902720,2
599622100309589376,6
599622100317276032,6
599622100324962816,9
599622100332649472,13
599622100340336256,18
599622100348022912,23
599622100355709568,27
599622100363396352,32
599622100371083008,36
599622100378769664,41
599622100386456448,46
599622100394143104,50
599622100401829888,46
599622100409516544,34
599622100417203200,23
599622100424889984,16
599622100432576640,9
599622100440263296,4
599622100447950080,2
599622100455636736,0
599622100463323520,0
599622100471010176,-2
599622100478696832,0
599622100486383616,2
599622100494070272,4
599622100501756928,9
599622100509443712,9
599622100517130368,9
599622100524817152,11
599622100532503808,11
599622100540190464,13
599622100547877248,13
599622100555563904,16
599622100563250560,16
599622100570937344,16
599622100578624000,16
599622100586310784,18
599622100593997440,18
599622100601684096,18
599622100609370880,20
599622100617057536,20
599622100624744192,20
599622100632430976,20
599622100640117632,23
599622100647804416,23
599622100655491114,23
599622100663177728,20
599622100670864384,23
599622100678551168,25
599622100686237824,25
599622100693924480,23
599622100701611264,23
599622100709297920,25
599622100716984704,25
599622100724671360,23
599622100732358016,23
599622100740044800,25
599622100747731456,23
599622100755418112,23
599622100763104896,27
599622100770791552,27
599622100778478336,25
599622100786164992,27
599622100793851648,27
599622100801538432,25
599622100809225088,20
599622100816911744,16
599622100824598528,11
599622100832285184,9
599622100839971968,18
599622100847658624,41
599622100855345280,64
599622100863032064,67
599622100870718720,67
599622100878405376,60
599622100886092160,41
599622100893778816,30
599622100901465600,27
599622100909152256,30
599622100916838912,30
599622100924525696,27
599622100932212352,27
599622100939899008,27
599622100947585792,25
599622100955272448,25
599622100962959232,27
599622100970645888,20
599622100978332544,-30
599622100986019328,-159
599622100993705984,-240
599622101001392640,-57
599622101009079424,399
599622101016766080,855
599622101024452864,882
599622101032139520,457
599622101039826176,94
599622101047512960,13
599622101055199616,-27
599622101062886272,-71
599622101070573056,-36
599622101078259712,-23
599622101085946496,-48
599622101093633152,-39
599622101101319808,-23
599622101109006592,-27
599622101116693248,-27
599622101124379904,-16
599622101132066688,-13
599622101139753344,-11
599622101147440128,-4
599622101155126784,0
599622101162813440,2
599622101170500224,6
599622101178186880,11
599622101185873536,16
599622101193560320,20
599622101201246976,25
599622101208933760,27
599622101216620493,32
599622101224307200,36
599622101231993856,41
599622101239680640,43
599622101247367296,48
599622101255053952,55
599622101262740736,60
599622101270427392,62
599622101278114176,67
599622101285800832,67
599622101293487488,57
599622101301174272,39
599622101308860928,23
599622101316547584,11
599622101324234368,2
599622101331921024,-6
599622101339607808,-11
599622101347294464,-13
599622101354981120,-16
599622101362667904,-13
599622101370354560,-11
599622101378041216,-9
599622101385728000,-9
599622101393414656,-6
599622101401101440,-4
599622101408788096,-4
599622101416474752,-2
599622101424161536,0
599622101431848192,2
599622101439534848,2
599622101447221632,2
599622101454908288,4
599622101462595072,6
599622101470281728,9
599622101477968384,9
599622101485655168,9
599622101493341824,11
599622101501028480,16
599622101508715264,13
599622101516401920,13
599622101524088704,16
599622101531775360,18
599622101539462016,16
599622101547148800,16
599622101554835456,18
599622101562522112,18
599622101570208896,18
599622101577895552,20
599622101585582336,20
599622101593268992,18
599622101600955648,20
599622101608642432,20
599622101616329088,20
599622101624015744,20
599622101631702528,20
599622101639389184,20
599622101647075968,20
599622101654762624,18
599622101662449280,13
599622101670136064,9
599622101677822720,6
599622101685509376,4
599622101693196160,18
599622101700882816,46
599622101708569600,62
599622101716256256,62
599622101723942912,60
599622101731629696,50
599622101739316352,32
599622101747003008,25
599622101754689792,25
599622101762376448,25
599622101770063232,25
599622101777749872,25
599622101785436544,25
599622101793123200,25
599622101800809984,23
599622101808496640,25
599622101816183296,23
599622101823870080,16
599622101831556736,-41
599622101839243520,-173
599622101846930176,-228
599622101854616832,-6
599622101862303616,462
599622101869990272,855
599622101877676928,783
599622101885363712,346
599622101893050368,43
599622101900737152,-11
599622101908423808,-46
599622101916110464,-64
599622101923797248,-20
599622101931483904,-16
599622101939170560,-41
599622101946857344,-30
599622101954544000,-16
599622101962230784,-20
599622101969917440,-16
599622101977604096,-6
599622101985290880,-6
599622101992977536,-4
599622102000664192,2
599622102008350976,6
599622102016037632,9
599622102023724416,13
599622102031411072,20
599622102039097728,25
599622102046784512,27
599622102054471168,30
599622102062157824,34
599622102069844608,39
599622102077531264,41
599622102085218048,46
599622102092904704,50
599622102100591360,55
599622102108278144,60
599622102115964800,64
599622102123651456,69
599622102131338240,69
599622102139024896,67
599622102146711680,57
599622102154398336,41
599622102162084992,23
599622102169771776,11
599622102177458432,2
599622102185145088,-6
599622102192831872,-11
599622102200518528,-9
599622102208205312,-11
599622102215891968,-11
599622102223578624,-9
599622102231265408,-6
599622102238952064,-6
599622102246638720,-6
599622102254325504,-2
599622102262012160,0
599622102269698944,0
599622102277385600,0
599622102285072256,2
599622102292759040,4
599622102300445696,6
599622102308132352,9
599622102315819136,9
599622102323505792,11
599622102331192576,13
599622102338879251,16
599622102346565888,16
599622102354252544,16
599622102361939328,18
599622102369625984,18
599622102377312640,20
599622102384999424,20
599622102392686080,20
599622102400372864,23
599622102408059520,23
599622102415746176,23
599622102423432960,23
599622102431119616,20
599622102438806272,23
599622102446493056,25
599622102454179712,25
599622102461866496,23
599622102469553152,23
599622102477239808,23
599622102484926592,23
599622102492613248,25
599622102500299904,25
599622102507986688,25
599622102515673344,23
599622102523360128,20
599622102531046784,16
599622102538733440,11
599622102546420224,9
599622102554106880,18
599622102561793536,46
599622102569480320,64
599622102577166976,64
599622102584853760,64
599622102592540416,62
599622102600227072,46
599622102607913856,30
599622102615600512,25
599622102623287168,27
599622102630973952,30
599622102638660608,27
599622102646347392,25
599622102654034048,25
599622102661720704,25
599622102669407488,25
599622102677094144,25
599622102684780800,20
599622102692467584,-23
599622102700154240,-152
599622102707841024,-244
599622102715527680,-101
599622102723214336,307
599622102730901120,732
599622102738587776,721
599622102746274432,224
599622102753961216,-94
599622102761647872,6
599622102769334656,16
599622102777021312,-92
599622102784707968,-46
599622102792394752,-4
599622102800081408,-46
599622102807768064,-41
599622102815454848,-13
599622102823141504,-18
599622102830828288,-18
599622102838514944,-6
599622102846201600,-4
599622102853888384,-4
599622102861575040,2
599622102869261696,6
599622102876948480,6
599622102884635136,11
599622102892321920,18
599622102900008630,20
599622102907694976,23
599622102915381376,25
599622102923067648,30
599622102930754048,30
599622102938440448,32
599622102946126720,36
599622102953813120,41
599622102961499520,46
599622102969185792,48
599622102976872192,53
599622102984558592,57
599622102992244864,60
599622102999931264,62
599622103007617536,57
599622103015303936,46
599622103022990336,32
599622103030676608,23
599622103038363008,13
599622103046049408,4
599622103053735680,2
599622103061422080,0
599622103069108480,0
599622103076794752,0
599622103084481152,2
599622103092167552,4
599622103099853824,6
599622103107540224,6
599622103115226624,6
599622103122912896,9
599622103130599296,9
599622103138285696,9
599622103145971968,9
599622103153658368,11
599622103161344768,11
599622103169031040,11
599622103176717440,13
599622103184403712,16
599622103192090112,16
599622103199776512,18
599622103207462784,18
599622103215149184,18
599622103222835584,20
599622103230521856,23
599622103238208256,20
599622103245894656,20
599622103253580928,23
599622103261267328,23
599622103268953728,23
599622103276640000,23
599622103284326400,23
599622103292012800,23
599622103299699072,25
599622103307385472,25
599622103315071872,23
599622103322758144,25
599622103330444544,25
599622103338130944,25
599622103345817216,25
599622103353503616,25
599622103361189888,25
599622103368876288,25
599622103376562688,25
599622103384248960,27
599622103391935360,27
599622103399621760,27
599622103407308032,27
599622103414994432,25
599622103422680832,18
599622103430367104,13
599622103438053504,11
599622103445739904,9
599622103453426176,23
599622103461112582,50
599622103468799616,67
599622103476486656,64
599622103484173696,64
599622103491860736,57
599622103499547776,41
599622103507234816,27
599622103514921984,27
599622103522609024,30
599622103530296064,30
599622103537983104,25
599622103545670144,23
599622103553357184,25
599622103561044224,27
599622103568731264,25
599622103576418304,25
599622103584105344,18
599622103591792512,-50
599622103599479552,-191
599622103607166592,-238
599622103614853632,2
599622103622540672,517
599622103630227712,986
599622103637914752,936
599622103645601792,450
599622103653288832,113
599622103660975872,36
599622103668662912,-34
599622103676350080,-78
599622103684037120,-48
599622103691724160,-50
599622103699411200,-67
599622103707098240,-55
599622103714785280,-46
599622103722472320,-48
599622103730159360,-41
599622103737846400,-32
599622103745533440,-30
599622103753220608,-27
599622103760907648,-23
599622103768594688,-16
599622103776281728,-11
599622103783968768,-9
599622103791655808,-4
599622103799342848,2
599622103807029888,4
599622103814716928,6
599622103822403968,11
599622103830091008,16
599622103837778176,20
599622103845465216,25
599622103853152256,30
599622103860839296,36
599622103868526336,41
599622103876213376,46
599622103883900416,53
599622103891587456,55
599622103899274496,55
599622103906961536,48
599622103914648704,36
599622103922335744,20
599622103930022784,11
599622103937709824,4
599622103945396864,0
599622103953083904,-4
599622103960770944,-9
599622103968457984,-6
599622103976145024,-2
599622103983832064,-2
599622103991519104,-2
599622103999206272,-2
599622104006893312,2
599622104014580352,4
599622104022267392,4
599622104029953920,4
599622104037640448,6
599622104045326848,6
599622104053013376,6
599622104060699904,9
599622104068386432,11
599622104076072832,11
599622104083759360,9
599622104091445888,11
599622104099132416,13
599622104106818816,13
599622104114505344,13
599622104122191872,16
599622104129878400,16
599622104137564800,20
599622104145251328,20
599622104152937856,18
599622104160624384,20
599622104168310784,20
599622104175997312,18
599622104183683840,20
599622104191370368,23
599622104199056768,25
599622104206743296,25
599622104214429824,25
599622104222116352,23
599622104229802752,23
599622104237489280,25
599622104245175808,25
599622104252862208,25
599622104260548736,25
599622104268235264,23
599622104275921792,25
599622104283608192,25
599622104291294720,20
599622104298981248,18
599622104306667776,16
599622104314354176,11
599622104322040704,11
599622104329727232,25
599622104337413760,53
599622104345100160,64
599622104352786688,60
599622104360473216,60
599622104368159744,50
599622104375846144,32
599622104383532672,25
599622104391219200,25
599622104398905728,25
599622104406592128,25
599622104414278656,25
599622104421965184,25
599622104429651712,23
599622104437338112,23
599622104445024640,23
599622104452711168,23
599622104460397568,18
599622104468084096,-36
599622104475770624,-171
599622104483457152,-235
599622104491143552,-23
599622104498830080,443
599622104506516608,859
599622104514203136,818
599622104521889536,376
599622104529576064,55
599622104537262592,-2
599622104544949120,-43
599622104552635520,-69
599622104560322048,-25
599622104568008576,-18
599622104575695104,-43
599622104583381514,-32
599622104591068288,-18
599622104598755072,-20
599622104606441856,-20
599622104614128640,-11
599622104621815424,-6
599622104629502208,-4
599622104637188992,0
599622104644875648,4
599622104652562432,9
599622104660249216,11
599622104667936000,18
599622104675622784,23
599622104683309568,25
599622104690996352,32
599622104698683136,36
599622104706369920,39
599622104714056704,46
599622104721743488,53
599622104729430272,57
599622104737116928,62
599622104744803712,69
599622104752490496,73
599622104760177280,76
599622104767864064,78
599622104775550848,71
599622104783237632,60
599622104790924416,39
599622104798611200,18
599622104806297984,2
599622104813984768,-6
599622104821671552,-13
599622104829358208,-18
599622104837044992,-18
599622104844731776,-18
599622104852418560,-16
599622104860105344,-13
599622104867792128,-13
599622104875478912,-11
599622104883165696,-9
599622104890852480,-6
599622104898539264,-6
599622104906226048,-4
599622104913912832,-2
599622104921599488,-2
599622104929286272,0
599622104936973056,2
599622104944659840,4
599622104952346624,4
599622104960033408,6
599622104967720192,9
599622104975406976,11
599622104983093760,11
599622104990780544,16
599622104998467328,16
599622105006154112,16
599622105013840768,16
599622105021527552,18
599622105029214336,18
599622105036901120,18
599622105044587904,20
599622105052274688,20
599622105059961472,20
599622105067648256,20
599622105075335040,20
599622105083021824,20
599622105090708608,23
599622105098395392,25
599622105106082176,23
599622105113768832,23
599622105121455616,18
599622105129142400,16
599622105136829184,11
599622105144515980,6
599622105152202368,11
599622105159888768,39
599622105167575168,64
599622105175261696,64
599622105182948096,64
599622105190634496,62
599622105198320896,46
599622105206007296,32
599622105213693824,30
599622105221380224,27
599622105229066624,27
599622105236753024,27
599622105244439424,25
599622105252125952,25
599622105259812352,25
599622105267498752,25
599622105275185152,23
599622105282871552,23
599622105290558080,2
599622105298244480,-90
599622105305930880,-221
599622105313617280,-187
599622105321303680,152
599622105328990208,661
599622105336676608,933
599622105344363008,686
599622105352049408,233
599622105359735808,27
599622105367422208,-9
599622105375108736,-62
599622105382795136,-53
599622105390481536,-16
599622105398167936,-34
599622105405854336,-46
599622105413540864,-25
599622105421227264,-23
599622105428913664,-25
599622105436600064,-16
599622105444286464,-9
599622105451972992,-9
599622105459659392,-2
599622105467345792,2
599622105475032192,4
599622105482718592,9
599622105490405120,13
599622105498091520,18
599622105505777920,20
599622105513464320,25
599622105521150720,32
599622105528837248,39
599622105536523648,43
599622105544210048,48
599622105551896448,55
599622105559582848,57
599622105567269376,64
599622105574955776,73
599622105582642176,78
599622105590328576,78
599622105598014976,83
599622105605701504,78
599622105613387904,55
599622105621074304,30
599622105628760704,13
599622105636447104,-4
599622105644133632,-18
599622105651820032,-18
599622105659506432,-18
599622105667192832,-18
599622105674879232,-18
599622105682565760,-23
599622105690252160,-25
599622105697938560,-18
599622105705625011,-9
599622105713312128,-4
599622105720999296,-9
599622105728686336,-16
599622105736373504,-11
599622105744060672,-9
599622105751747712,-11
599622105759434880,-9
599622105767121920,-11
599622105774809088,-11
599622105782496256,-9
599622105790183296,-9
599622105797870464,-16
599622105805557632,-20
599622105813244672,-18
599622105820931840,-13
599622105828619008,-16
599622105836306048,-16
599622105843993216,-6
599622105851680384,-9
599622105859367424,-16
599622105867054592,-20
599622105874741632,-32
599622105882428800,-41
599622105890115968,-34
599622105897803008,-34
599622105905490176,-50
599622105913177344,-46
599622105920864384,-39
599622105928551552,-41
599622105936238720,-39
599622105943925760,-39
599622105951612928,-48
599622105959299968,-55
599622105966987136,-55
599622105974674304,-53
599622105982361344,-50
599622105990048512,-53
599622105997735680,-64
599622106005422720,-73
599622106013109888,-76
599622106020797056,-69
599622106028484096,-48
599622106036171264,-36
599622106043858432,-39
599622106051545472,-36
599622106059232640,-41
599622106066919680,-67
599622106074606848,-85
599622106082294016,-83
599622106089981056,-85
599622106097668224,-97
599622106105355392,-99
599622106113042432,-94
599622106120729600,-99
599622106128416768,-108
599622106136103808,-101
599622106143790976,-94
599622106151478016,-97
599622106159165184,-115
599622106166852352,-198
599622106174539392,-330
599622106182226560,-316
599622106189913728,-9
599622106197600768,455
599622106205287936,697
599622106212975104,450
599622106220662144,4
599622106228349312,-168
599622106236036480,-164
599622106243723520,-187
599622106251410688,-134
599622106259097728,-64
599622106266784912,-87
599622106274471552,-101
599622106282158208,-78
599622106289844992,-76
599622106297531648,-76
599622106305218304,-60
599622106312905088,-53
599622106320591744,-50
599622106328278528,-43
599622106335965184,-41
599622106343651840,-39
599622106351338624,-34
599622106359025280,-23
599622106366711936,-9
599622106374398720,-16
599622106382085376,-20
599622106389772160,0
599622106397458816,16
599622106405145472,25
599622106412832256,39
599622106420518912,46
599622106428205568,43
599622106435892352,50
599622106443579008,62
599622106451265792,67
599622106458952448,73
599622106466639104,80
599622106474325888,67
599622106482012544,32
599622106489699200,-2
599622106497385984,-23
599622106505072640,-41
599622106512759424,-50
599622106520446080,-62
599622106528132736,-78
599622106535819520,-73
599622106543506176,-62
599622106551192832,-67
599622106558879616,-71
599622106566566272,-67
599622106574253056,-57
599622106581939712,-53
599622106589626368,-53
599622106597313152,-50
599622106604999808,-50
599622106612686464,-69
599622106620373248,-78
599622106628059904,-67
599622106635746688,-67
599622106643433344,-60
599622106651120000,-39
599622106658806784,-39
599622106666493440,-53
599622106674180096,-27
599622106681866880,-23
599622106689553536,-85
599622106697240320,-99
599622106704926976,-36
599622106712613632,-34
599622106720300416,-92
599622106727987072,-87
599622106735673728,-36
599622106743360512,-39
599622106751047168,-64
599622106758733952,-55
599622106766420608,-36
599622106774107264,-39
599622106781794048,-57
599622106789480704,-64
599622106797167360,-50
599622106804854144,-53
599622106812540800,-80
599622106820227584,-80
599622106827914291,-43
599622106835600896,-23
599622106843287552,-20
599622106850974336,-9
599622106858660992,2
599622106866347648,-13
599622106874034432,-60
599622106881721088,-62
599622106889407872,-34
599622106897094528,-53
599622106904781184,-85
599622106912467968,-69
599622106920154624,-55
599622106927841280,-85
599622106935528064,-85
599622106943214720,-71
599622106950901504,-92
599622106958588160,-87
599622106966274816,-124
599622106973961600,-284
599622106981648256,-344
599622106989334912,-94
599622106997021696,355
599622107004708352,714
599622107012395136,647
599622107020081792,198
599622107027768448,-104
599622107035455232,-113
599622107043141888,-127
599622107050828544,-131
599622107058515328,-67
599622107066201984,-60
599622107073888768,-83
599622107081575424,-57
599622107089262080,-55
599622107096948864,-67
599622107104635520,-57
599622107112322176,-69
599622107120008960,-73
599622107127695616,-27
599622107135382400,-9
599622107143069056,-46
599622107150755712,-55
599622107158442496,-43
599622107166129152,-30
599622107173815808,-13
599622107181502592,-25
599622107189189248,-32
599622107196876032,-2
599622107204562688,0
599622107212249344,-18
599622107219936128,-6
599622107227622784,0
599622107235309440,-2
599622107242996224,18
599622107250682880,43
599622107258369664,43
599622107266056320,39
599622107273742976,36
599622107281429760,20
599622107289116416,-20
599622107296803072,-62
599622107304489856,-69
599622107312176512,-62
599622107319863296,-80
599622107327549952,-97
599622107335236608,-97
599622107342923392,-94
599622107350610048,-97
599622107358296704,-99
599622107365983488,-99
599622107373670144,-99
599622107381356928,-99
599622107389043670,-99
599622107396730368,-104
599622107404417024,-99
599622107412103808,-87
599622107419790464,-85
599622107427477120,-80
599622107435163904,-71
599622107442850560,-76
599622107450537344,-80
599622107458224000,-80
599622107465910656,-80
599622107473597440,-83
599622107481284096,-73
599622107488970752,-69
599622107496657536,-78
599622107504344192,-76
599622107512030976,-69
599622107519717632,-83
599622107527404288,-90
599622107535091072,-78
599622107542777728,-73
599622107550464384,-80
599622107558151168,-94
599622107565837824,-94
599622107573524608,-78
599622107581211264,-76
599622107588897920,-90
599622107596584704,-73
599622107604271360,-46
599622107611958016,-43
599622107619644800,-32
599622107627331456,-18
599622107635018240,-46
599622107642704896,-73
599622107650391552,-71
599622107658078336,-69
599622107665764992,-76
599622107673451648,-64
599622107681138432,-50
599622107688825088,-55
599622107696511872,-60
599622107704198528,-64
599622107711885184,-73
599622107719571968,-73
599622107727258624,-71
599622107734945280,-85
599622107742632064,-161
599622107750318720,-302
599622107758005504,-293
599622107765692160,53
599622107773378816,593
599622107781065600,887
599622107788752256,621
599622107796438912,124
599622107804125696,-94
599622107811812352,-129
599622107819499136,-194
599622107827185792,-184
599622107834872448,-145
599622107842559232,-175
599622107850245888,-191
599622107857932544,-180
599622107865619328,-184
599622107873305984,-191
599622107880992768,-189
599622107888679424,-187
599622107896366080,-187
599622107904052864,-184
599622107911739520,-182
599622107919426176,-175
599622107927112960,-171
599622107934799616,-175
599622107942486400,-177
599622107950173049,-168
599622107957859712,-161
599622107965546368,-152
599622107973233152,-143
599622107980919808,-145
599622107988606464,-140
599622107996293248,-115
599622108003979904,-106
599622108011666688,-108
599622108019353344,-90
599622108027040000,-80
599622108034726784,-85
599622108042413440,-85
599622108050100096,-97
599622108057786880,-127
599622108065473536,-147
599622108073160320,-159
599622108080846976,-177
599622108088533632,-196
599622108096220416,-201
599622108103907072,-191
599622108111593728,-180
599622108119280512,-180
599622108126967168,-196
599622108134653952,-196
599622108142340608,-182
599622108150027264,-173
599622108157714048,-168
599622108165400704,-164
599622108173087360,-161
599622108180774144,-164
599622108188460800,-164
599622108196147584,-147
599622108203834240,-143
599622108211520896,-152
599622108219207680,-145
599622108226894336,-129
599622108234580992,-127
599622108242267776,-127
599622108249954432,-120
599622108257641216,-113
599622108265327872,-110
599622108273014528,-108
599622108280701312,-97
599622108288387968,-90
599622108296074624,-90
599622108303761408,-85
599622108311448064,-76
599622108319134848,-73
599622108326821504,-87
599622108334508160,-85
599622108342194944,-71
599622108349881600,-64
599622108357568256,-69
599622108365255040,-83
599622108372941696,-85
599622108380628480,-80
599622108388315136,-80
599622108396001792,-64
599622108403688576,-32
599622108411375232,-23
599622108419061888,-27
599622108426748672,-23
599622108434435328,-27
599622108442122112,-46
599622108449808768,-57
599622108457495424,-57
599622108465182208,-64
599622108472868864,-73
599622108480555520,-76
599622108488242304,-67
599622108495928960,-60
599622108503615744,-62
599622108511302428,-67
599622108518989056,-67
599622108526675712,-60
599622108534362496,-83
599622108542049152,-191
599622108549735808,-309
599622108557422592,-226
599622108565109248,168
599622108572796032,695
599622108580482688,903
599622108588169344,552
599622108595856128,90
599622108603542784,-57
599622108611229440,-99
599622108618916224,-161
599622108626602880,-140
599622108634289664,-115
599622108641976320,-145
599622108649662976,-143
599622108657349760,-122
599622108665036416,-122
599622108672723072,-124
599622108680409856,-117
599622108688096512,-120
599622108695783296,-120
599622108703469952,-104
599622108711156608,-99
599622108718843392,-115
599622108726530048,-110
599622108734216704,-92
599622108741903488,-87
599622108749590144,-94
599622108757276928,-92
599622108764963584,-83
599622108772650240,-76
599622108780337024,-69
599622108788023680,-60
599622108795710336,-53
599622108803397120,-43
599622108811083776,-32
599622108818770560,-20
599622108826457216,-16
599622108834143872,-9
599622108841830656,-6
599622108849517312,-20
599622108857203968,-48
599622108864890752,-71
599622108872577408,-85
599622108880264192,-92
599622108887950848,-106
599622108895637504,-124
599622108903324288,-124
599622108911010944,-120
599622108918697600,-120
599622108926384384,-113
599622108934071040,-104
599622108941757824,-104
599622108949444480,-104
599622108957131136,-101
599622108964817920,-94
599622108972504576,-90
599622108980191232,-92
599622108987878016,-92
599622108995564672,-85
599622109003251456,-83
599622109010938112,-80
599622109018624768,-76
599622109026311552,-71
599622109033998208,-69
599622109041684864,-69
599622109049371648,-67
599622109057058304,-69
599622109064745088,-69
599622109072431807,-67
599622109080118400,-55
599622109087805056,-53
599622109095491840,-57
599622109103178496,-57
599622109110865152,-60
599622109118551936,-62
599622109126238592,-60
599622109133925376,-57
599622109141612032,-60
599622109149298688,-62
599622109156985472,-57
599622109164672128,-57
599622109172358784,-62
599622109180045568,-67
599622109187732224,-71
599622109195419008,-76
599622109203105664,-83
599622109210792320,-80
599622109218479104,-50
599622109226165760,-23
599622109233852416,-25
599622109241539200,-27
599622109249225856,-25
599622109256912640,-39
599622109264599296,-60
599622109272285952,-69
599622109279972736,-76
599622109287659392,-85
599622109295346048,-92
599622109303032832,-76
599622109310719488,-55
599622109318406272,-57
599622109326092928,-67
599622109333779584,-60
599622109341466368,-50
599622109349153024,-67
599622109356839680,-157
599622109364526464,-300
599622109372213120,-302
599622109379899904,4
599622109387586560,550
599622109395273216,963
599622109402960000,811
599622109410646656,288
599622109418333312,-9
599622109426020096,-64
599622109433706752,-140
599622109441393536,-171
599622109449080192,-104
599622109456766848,-78
599622109464453632,-110
599622109472140288,-101
599622109479826944,-76
599622109487513728,-83
599622109495200384,-87
599622109502887168,-76
599622109510573824,-87
599622109518260480,-90
599622109525947264,-64
599622109533633920,-50
599622109541320576,-55
599622109549007360,-41
599622109556694016,-13
599622109564380800,-13
599622109572067456,-20
599622109579754112,-4
599622109587440896,11
599622109595127552,13
599622109602814208,23
599622109610500992,36
599622109618187648,48
599622109625874432,60
599622109633561186,67
599622109641247872,76
599622109648934528,83
599622109656621312,80
599622109664307968,60
599622109671994624,30
599622109679681408,-2
599622109687368064,-36
599622109695054848,-69
599622109702741504,-94
599622109710428160,-117
599622109718114944,-136
599622109725801600,-154
599622109733488256,-173
599622109741175040,-189
599622109748861696,-208
599622109756548480,-219
599622109764235136,-231
599622109771921792,-251
599622109779608576,-272
599622109787295232,-284
599622109794981888,-302
599622109802668672,-321
599622109810355328,-330
599622109818042112,-342
599622109825728768,-346
599622109833415424,-348
599622109841102208,-362
599622109848788864,-374
599622109856475520,-372
599622109864162304,-355
599622109871848960,-351
599622109879535744,-365
599622109887222400,-360
599622109894909056,-346
599622109902595840,-355
599622109910282496,-351
599622109917969152,-328
599622109925655936,-332
599622109933342592,-337
599622109941029376,-307
599622109948716032,-291
599622109956402688,-293
599622109964089472,-256
599622109971776128,-228
599622109979462784,-242
599622109987149568,-226
599622109994836224,-184
599622110002523008,-164
599622110010209664,-136
599622110017896320,-94
599622110025583104,-53
599622110033269760,-2
599622110040956416,39
599622110048643200,43
599622110056329856,39
599622110064016640,55
599622110071703296,71
599622110079389952,90
599622110087076736,99
599622110094763392,104
599622110102450048,131
599622110110136832,145
599622110117823488,124
599622110125510272,131
599622110133196928,152
599622110140883584,145
599622110148570368,127
599622110156257024,20
599622110163943680,-127
599622110171630464,-83
599622110179317120,258
599622110187003904,815
599622110194690569,1208
599622110202376960,973
599622110210063360,397
599622110217749760,140
599622110225436288,110
599622110233122688,18
599622110240809088,-4
599622110248495488,30
599622110256181888,-4
599622110263868416,-20
599622110271554816,0
599622110279241216,-4
599622110286927616,-9
599622110294614016,-13
599622110302300544,-23
599622110309986944,-11
599622110317673344,0
599622110325359744,-2
599622110333046144,-11
599622110340732672,-4
599622110348419072,13
599622110356105472,11
599622110363791872,9
599622110371478272,30
599622110379164800,36
599622110386851200,16
599622110394537600,27
599622110402224000,62
599622110409910400,64
599622110417596800,62
599622110425283328,87
599622110432969728,97
599622110440656128,94
599622110448342528,113
599622110456028928,108
599622110463715456,92
599622110471401856,110
599622110479088256,99
599622110486774656,60
599622110494461056,60
599622110502147584,55
599622110509833984,39
599622110517520384,62
599622110525206784,80
599622110532893184,57
599622110540579712,60
599622110548266112,80
599622110555952512,27
599622110563638912,-25
599622110571325312,36
599622110579011840,110
599622110586698240,99
599622110594384640,87
599622110602071040,101
599622110609757440,101
599622110617443968,99
599622110625130368,106
599622110632816768,108
599622110640503168,108
599622110648189568,110
599622110655876096,108
599622110663562496,106
599622110671248896,117
599622110678935296,120
599622110686621696,108
599622110694308224,104
599622110701994624,97
599622110709681024,85
599622110717367424,92
599622110725053824,90
599622110732740352,64
599622110740426752,55
599622110748113152,67
599622110755799604,71
599622110763486080,69
599622110771172608,87
599622110778859264,120
599622110786545792,136
599622110794232320,140
599622110801918848,143
599622110809605504,131
599622110817292032,115
599622110824978560,110
599622110832665216,113
599622110840351744,108
599622110848038272,99
599622110855724800,101
599622110863411456,83
599622110871097984,39
599622110878784512,46
599622110886471168,92
599622110894157696,101
599622110901844224,85
599622110909530752,53
599622110917217408,-76
599622110924903936,-212
599622110932590464,-67
599622110940277120,429
599622110947963648,947
599622110955650176,982
599622110963336704,483
599622110971023360,76
599622110978709888,25
599622110986396416,-16
599622110994083072,-83
599622111001769600,-46
599622111009456128,-25
599622111017142656,-41
599622111024829312,-41
599622111032515840,-50
599622111040202368,-43
599622111047889024,-13
599622111055575552,-25
599622111063262080,-43
599622111070948608,-6
599622111078635264,23
599622111086321792,-2
599622111094008320,-30
599622111101694976,-25
599622111109381504,-9
599622111117068032,-9
599622111124754560,-27
599622111132441216,-46
599622111140127744,-43
599622111147814272,-34
599622111155500928,-39
599622111163187456,-57
599622111170873984,-53
599622111178560512,-13
599622111186247168,4
599622111193933696,-9
599622111201620224,-13
599622111209306880,-20
599622111216993408,-64
599622111224679936,-108
599622111232366464,-124
599622111240053120,-147
599622111247739648,-177
599622111255426176,-203
599622111263112832,-240
599622111270799360,-254
599622111278485888,-208
599622111286172416,-175
599622111293859072,-189
599622111301545600,-191
599622111309232128,-166
599622111316918809,-145
599622111324605440,-129
599622111332292096,-120
599622111339978880,-134
599622111347665536,-154
599622111355352192,-138
599622111363038976,-124
599622111370725632,-140
599622111378412416,-143
599622111386099072,-120
599622111393785728,-104
599622111401472512,-106
599622111409159168,-117
599622111416845824,-120
599622111424532608,-117
599622111432219264,-124
599622111439906048,-129
599622111447592704,-138
599622111455279360,-147
599622111462966144,-122
599622111470652800,-97
599622111478339456,-97
599622111486026240,-90
599622111493712896,-85
599622111501399680,-83
599622111509086336,-76
599622111516772992,-64
599622111524459776,-23
599622111532146432,-6
599622111539833088,-53
599622111547519872,-80
599622111555206528,-64
599622111562893312,-43
599622111570579968,-36
599622111578266624,-64
599622111585953408,-78
599622111593640064,-53
599622111601326720,-34
599622111609013504,-32
599622111616700160,-32
599622111624386944,-32
599622111632073600,-39
599622111639760256,-87
599622111647447040,-201
599622111655133696,-277
599622111662820352,-94
599622111670507136,422
599622111678193792,922
599622111685880576,843
599622111693567232,298
599622111701253888,-27
599622111708940672,-55
599622111716627328,-108
599622111724313984,-115
599622111732000768,-50
599622111739687424,-73
599622111747374208,-110
599622111755060864,-87
599622111762747520,-67
599622111770434304,-64
599622111778120960,-60
599622111785807616,-25
599622111793494400,30
599622111801181056,39
599622111808867840,16
599622111816554496,39
599622111824241152,106
599622111831927936,134
599622111839614592,110
599622111847301248,115
599622111854988032,184
599622111862674688,219
599622111870361472,198
599622111878048188,226
599622111885734784,261
599622111893421440,298
599622111901108224,353
599622111908794880,355
599622111916481536,332
599622111924168320,314
599622111931854976,307
599622111939541760,335
599622111947228416,358
599622111954915072,339
599622111962601856,279
599622111970288512,275
599622111977975168,318
599622111985661952,247
599622111993348608,249
599622112001035392,418
599622112008722048,418
599622112016408704,277
599622112024095488,286
599622112031782144,385
599622112039468800,402
599622112047155584,369
599622112054842240,325
599622112062529024,321
599622112070215680,381
599622112077902336,385
599622112085589120,355
599622112093275776,360
599622112100962432,344
599622112108649216,328
599622112116335872,323
599622112124022656,372
599622112131709312,427
599622112139395968,321
599622112147082752,302
599622112154769408,459
599622112162456064,397
599622112170142848,265
599622112177829504,362
599622112185516288,397
599622112193202944,316
599622112200889600,374
599622112208576384,429
599622112216263040,342
599622112223949696,321
599622112231636480,355
599622112239323136,362
599622112247009920,429
599622112254696576,457
599622112262383232,392
599622112270070016,337
599622112277756672,295
599622112285443328,323
599622112293130112,351
599622112300816768,351
599622112308503552,337
599622112316190208,189
599622112323876864,171
599622112331563648,395
599622112339250304,367
599622112346936960,108
599622112354623744,208
599622112362310400,489
599622112369997184,212
599622112377683840,-208
599622112385370496,25
599622112393057280,526
599622112400743936,894
599622112408430592,1199
599622112416117376,1003
599622112423804032,337
599622112431490816,-34
599622112439177567,108
599622112446864256,330
599622112454550912,254
599622112462237696,16
599622112469924352,64
599622112477611008,305
599622112485297792,210
599622112492984448,129
599622112500671232,392
599622112508357888,281
599622112516044544,-71
599622112523731328,131
599622112531417984,339
599622112539104640,62
599622112546791424,113
599622112554478080,448
599622112562164864,365
599622112569851520,184
599622112577538176,201
599622112585224960,194
599622112592911616,201
599622112600598272,286
599622112608285056,263
599622112615971712,173
599622112623658496,226
599622112631345152,279
599622112639031808,212
599622112646718592,191
599622112654405248,214
599622112662091904,187
599622112669778688,150
599622112677465344,134
599622112685152128,127
599622112692838784,152
599622112700525440,127
599622112708212224,16
599622112715898880,0
599622112723585536,85
599622112731272320,76
599622112738958976,11
599622112746645760,23
599622112754332416,57
599622112762019072,25
599622112769705856,-4
599622112777392512,27
599622112785079168,36
599622112792765952,27
599622112800452608,76
599622112808139392,104
599622112815826048,78
599622112823512704,78
599622112831199488,117
599622112838886144,145
599622112846572800,150
599622112854259584,122
599622112861946240,85
599622112869633024,104
599622112877319680,122
599622112885006336,90
599622112892693120,122
599622112900379776,198
599622112908066432,198
599622112915753216,177
599622112923439872,189
599622112931126656,180
599622112938813312,154
599622112946499968,147
599622112954186752,138
599622112961873408,175
599622112969560064,244
599622112977246848,210
599622112984933504,140
599622112992620288,152
599622113000306946,143
599622113007993728,99
599622113015680512,99
599622113023367296,115
599622113031054080,110
599622113038740864,101
599622113046427648,53
599622113054114432,30
599622113061801088,124
599622113069487872,175
599622113077174656,99
599622113084861440,34
599622113092548224,18
599622113100235008,-69
599622113107921792,-140
599622113115608576,57
599622113123295360,520
599622113130982144,901
599622113138668928,771
599622113146355712,277
599622113154042368,62
599622113161729152,97
599622113169415936,-11
599622113177102720,-57
599622113184789504,64
599622113192476288,73
599622113200163072,11
599622113207849856,53
599622113215536640,97
599622113223223424,73
599622113230910208,41
599622113238596992,-4
599622113246283648,34
599622113253970432,198
599622113261657216,231
599622113269344000,131
599622113277030784,115
599622113284717568,147
599622113292404352,164
599622113300091136,173
599622113307777920,152
599622113315464704,168
599622113323151488,226
599622113330838272,224
599622113338524928,196
599622113346211712,196
599622113353898496,189
599622113361585280,233
599622113369272064,325
599622113376958848,291
599622113384645632,219
599622113392332416,298
599622113400019200,351
599622113407705984,265
599622113415392768,205
599622113423079552,198
599622113430766336,189
599622113438452992,203
599622113446139776,203
599622113453826560,189
599622113461513344,189
599622113469200128,187
599622113476886912,205
599622113484573696,251
599622113492260480,240
599622113499947264,177
599622113507634048,182
599622113515320832,261
599622113523007616,277
599622113530694272,228
599622113538381056,214
599622113546067840,221
599622113553754624,249
599622113561441416,300
599622113569128448,295
599622113576815488,270
599622113584502528,277
599622113592189568,258
599622113599876608,226
599622113607563648,256
599622113615250816,314
599622113622937856,323
599622113630624896,284
599622113638311936,268
599622113645998976,295
599622113653686016,302
599622113661373056,258
599622113669060096,242
599622113676747136,295
599622113684434176,316
599622113692121344,302
599622113699808384,323
599622113707495424,335
599622113715182464,328
599622113722869504,337
599622113730556544,302
599622113738243584,256
599622113745930624,293
599622113753617664,316
599622113761304704,284
599622113768991744,286
599622113776678912,305
599622113784365952,291
599622113792052992,288
599622113799740032,305
599622113807427072,295
599622113815114112,270
599622113822801152,265
599622113830488192,256
599622113838175232,157
599622113845862272,30
599622113853549440,113
599622113861236480,489
599622113868923520,961
599622113876610560,1125
599622113884297600,758
599622113891984640,302
599622113899671680,171
599622113907358720,157
599622113915045760,131
599622113922732800,180
599622113930419840,203
599622113938107008,166
599622113945794048,171
599622113953481088,182
599622113961168128,157
599622113968855168,166
599622113976542208,189
599622113984229248,173
599622113991916288,164
599622113999603328,175
599622114007290368,175
599622114014977536,184
599622114022664576,191
599622114030351616,175
599622114038038656,189
599622114045725696,212
599622114053412736,173
599622114061099776,150
599622114068786816,238
599622114076473856,305
599622114084160896,254
599622114091847936,240
599622114099535104,309
599622114107222144,323
599622114114909184,284
599622114122596226,286
599622114130282752,312
599622114137969280,318
599622114145655680,288
599622114153342208,247
599622114161028736,221
599622114168715264,214
599622114176401664,219
599622114184088192,194
599622114191774720,150
599622114199461248,134
599622114207147648,145
599622114214834176,177
599622114222520704,134
599622114230207232,94
599622114237893632,226
599622114245580160,293
599622114253266688,187
599622114260953216,147
599622114268639616,191
599622114276326144,159
599622114284012672,106
599622114291699200,150
599622114299385600,201
599622114307072128,191
599622114314758656,198
599622114322445184,208
599622114330131584,180
599622114337818112,175
599622114345504640,182
599622114353191040,173
599622114360877568,173
599622114368564096,184
599622114376250624,184
599622114383937024,168
599622114391623552,152
599622114399310080,138
599622114406996608,136
599622114414683008,147
599622114422369536,138
599622114430056064,120
599622114437742592,154
599622114445428992,203
599622114453115520,194
599622114460802048,168
599622114468488576,175
599622114476174976,166
599622114483861504,131
599622114491548032,117
599622114499234560,110
599622114506920960,97
599622114514607488,97
599622114522294016,110
599622114529980544,117
599622114537666944,104
599622114545353472,90
599622114553040000,99
599622114560726400,108
599622114568412928,92
599622114576099456,69
599622114583785984,0
599622114591472384,-110
599622114599158912,-73
599622114606845440,249
599622114614531968,688
599622114622218368,862
599622114629904896,568
599622114637591424,157
599622114645277952,27
599622114652964352,23
599622114660650880,-18
599622114668337408,25
599622114676023936,80
599622114683710348,32
599622114691396864,-6
599622114699083392,25
599622114706769792,34
599622114714456320,9
599622114722142848,4
599622114729829376,11
599622114737515776,4
599622114745202304,-4
599622114752888832,-9
599622114760575360,-18
599622114768261760,-20
599622114775948288,-9
599622114783634816,4
599622114791321344,0
599622114799007744,-16
599622114806694272,-20
599622114814380800,-18
599622114822067328,-16
599622114829753728,-25
599622114837440256,-43
599622114845126784,-34
599622114852813312,11
599622114860499712,27
599622114868186240,-9
599622114875872768,-30
599622114883559296,-32
599622114891245696,-64
599622114898932224,-108
599622114906618752,-131
599622114914305152,-150
599622114921991680,-175
599622114929678208,-173
599622114937364736,-157
599622114945051136,-175
599622114952737664,-203
599622114960424192,-196
599622114968110720,-175
599622114975797120,-168
599622114983483648,-175
599622114991170176,-191
599622114998856704,-201
599622115006543104,-177
599622115014229632,-150
599622115021916160,-152
599622115029602688,-173
599622115037289088,-187
599622115044975616,-171
599622115052662144,-124
599622115060348672,-147
599622115068035072,-254
599622115075721600,-238
599622115083408128,-129
599622115091094528,-127
599622115098781056,-286
599622115106467584,-517
599622115114154112,-441
599622115121840512,-120
599622115129527040,-83
599622115137213568,-194
599622115144900096,-145
599622115152586496,-113
599622115160273024,-150
599622115167959552,-115
599622115175646080,-57
599622115183332480,-64
599622115191019008,-71
599622115198705536,-62
599622115206392064,-85
599622115214078464,-110
599622115221764992,-99
599622115229451520,-92
599622115237138048,-104
599622115244824466,-108
599622115252511104,-90
599622115260197760,-78
599622115267884544,-90
599622115275571200,-101
599622115283257856,-94
599622115290944640,-90
599622115298631296,-108
599622115306318080,-242
599622115314004736,-573
599622115321691392,-721
599622115329378176,-281
599622115337064832,367
599622115344751488,550
599622115352438272,-60
599622115360124928,-723
599622115367811712,-448
599622115375498368,25
599622115383185024,-131
599622115390871808,-224
599622115398558464,-36
599622115406245120,-43
599622115413931904,-122
599622115421618560,-69
599622115429305344,-43
599622115436992000,-69
599622115444678656,-57
599622115452365440,-43
599622115460052096,-55
599622115467738752,-50
599622115475425536,-39
599622115483112192,-41
599622115490798976,-32
599622115498485632,-6
599622115506172288,-4
599622115513859072,-16
599622115521545728,-6
599622115529232384,4
599622115536919168,11
599622115544605824,27
599622115552292608,48
599622115559979264,57
599622115567665920,50
599622115575352704,60
599622115583039360,80
599622115590726016,90
599622115598412800,97
599622115606099456,104
599622115613786240,97
599622115621472896,80
599622115629159552,67
599622115636846336,46
599622115644532992,25
599622115652219648,20
599622115659906432,20
599622115667593088,16
599622115675279872,18
599622115682966528,30
599622115690653184,39
599622115698339968,41
599622115706026624,41
599622115713713280,46
599622115721400064,53
599622115729086720,55
599622115736773504,50
599622115744460160,46
599622115752146816,43
599622115759833600,55
599622115767520256,71
599622115775206912,64
599622115782893696,71
599622115790580352,122
599622115798267136,122
599622115805953845,67
599622115813640448,60
599622115821327104,80
599622115829013888,69
599622115836700544,55
599622115844387200,55
599622115852073984,57
599622115859760640,57
599622115867447424,57
599622115875134080,43
599622115882820736,34
599622115890507520,57
599622115898194176,80
599622115905880832,62
599622115913567616,55
599622115921254272,108
599622115928941056,117
599622115936627712,50
599622115944314368,25
599622115952001152,57
599622115959687808,60
599622115967374464,27
599622115975061248,32
599622115982747904,57
599622115990434688,46
599622115998121344,27
599622116005808000,36
599622116013494784,46
599622116021181440,30
599622116028868096,-36
599622116036554880,-175
599622116044241536,-221
599622116051928320,23
599622116059614976,547
599622116067301632,1019
599622116074988416,947
599622116082675072,427
599622116090361728,90
599622116098048512,39
599622116105735168,-23
599622116113421952,-62
599622116121108608,-25
599622116128795264,-30
599622116136482048,-50
599622116144168704,-30
599622116151855360,-18
599622116159542144,-27
599622116167228800,-23
599622116174915584,-13
599622116182602240,-9
599622116190288896,-4
599622116197975680,0
599622116205662336,0
599622116213348992,2
599622116221035776,11
599622116228722432,20
599622116236409216,18
599622116244095872,16
599622116251782528,23
599622116259469312,30
599622116267155968,27
599622116274842624,30
599622116282529408,36
599622116290216064,41
599622116297902848,46
599622116305589504,53
599622116313276160,57
599622116320962944,62
599622116328649600,62
599622116336336256,55
599622116344023040,41
599622116351709696,27
599622116359396480,13
599622116367083224,2
599622116374769920,-13
599622116382456576,-27
599622116390143360,-32
599622116397830016,-25
599622116405516672,-25
599622116413203456,-27
599622116420890112,-20
599622116428576896,-16
599622116436263552,-16
599622116443950208,-11
599622116451636992,-11
599622116459323648,-13
599622116467010304,-13
599622116474697088,-11
599622116482383744,-9
599622116490070528,-9
599622116497757184,-9
599622116505443840,-9
599622116513130624,-6
599622116520817280,-6
599622116528503936,-6
599622116536190720,-6
599622116543877376,-2
599622116551564160,2
599622116559250816,2
599622116566937472,4
599622116574624256,2
599622116582310912,0
599622116589997568,-2
599622116597684352,-4
599622116605371008,0
599622116613057792,27
599622116620744448,53
599622116628431104,55
599622116636117888,57
599622116643804544,57
599622116651491200,36
599622116659177984,18
599622116666864640,11
599622116674551424,9
599622116682238080,13
599622116689924736,16
599622116697611520,11
599622116705298176,11
599622116712984832,13
599622116720671616,11
599622116728358272,11
599622116736045056,11
599622116743731712,-13
599622116751418368,-122
599622116759105152,-256
599622116766791808,-194
599622116774478464,182
599622116782165248,737
599622116789851904,1037
599622116797538688,751
599622116805225344,251
599622116812912000,46
599622116820598784,-4
599622116828285440,-83
599622116835972096,-78
599622116843658880,-46
599622116851345536,-69
599622116859032320,-78
599622116866718976,-57
599622116874405632,-55
599622116882092416,-57
599622116889779072,-50
599622116897465728,-43
599622116905152512,-41
599622116912839168,-34
599622116920525952,-27
599622116928212607,-25
599622116935899264,-20
599622116943585920,-13
599622116951272704,-11
599622116958959360,-6
599622116966646016,0
599622116974332800,4
599622116982019456,6
599622116989706240,9
599622116997392896,16
599622117005079552,20
599622117012766336,23
599622117020452992,27
599622117028139648,36
599622117035826432,41
599622117043513088,41
599622117051199872,41
599622117058886528,36
599622117066573184,25
599622117074259968,11
599622117081946624,4
599622117089633280,0
599622117097320064,-4
599622117105006720,-4
599622117112693504,-2
599622117120380160,-2
599622117128066816,-2
599622117135753600,0
599622117143440256,4
599622117151126912,4
599622117158813696,6
599622117166500352,6
599622117174187136,6
599622117181873792,6
599622117189560448,9
599622117197247232,13
599622117204933888,32
599622117212620544,48
599622117220307328,23
599622117227993984,4
599622117235680768,16
599622117243367424,20
599622117251054080,13
599622117258740864,16
599622117266427520,18
599622117274114176,16
599622117281800960,13
599622117289487616,11
599622117297174400,6
599622117304861056,2
599622117312547712,2
599622117320234496,16
599622117327921152,43
599622117335607808,62
599622117343294592,60
599622117350981248,62
599622117358668032,53
599622117366354688,32
599622117374041344,18
599622117381728128,13
599622117389414784,16
599622117397101440,16
599622117404788224,16
599622117412474880,13
599622117420161664,16
599622117427848320,16
599622117435534976,16
599622117443221760,16
599622117450908416,9
599622117458595072,-55
599622117466281856,-198
599622117473968512,-258
599622117481655296,-34
599622117489341986,473
599622117497028608,973
599622117504715264,973
599622117512402048,489
599622117520088704,113
599622117527775360,27
599622117535462144,-41
599622117543148800,-92
599622117550835584,-62
599622117558522240,-55
599622117566208896,-76
599622117573895680,-67
599622117581582336,-55
599622117589268992,-55
599622117596955776,-50
599622117604642432,-43
599622117612329216,-41
599622117620015872,-36
599622117627702528,-36
599622117635389312,-34
599622117643075968,-20
599622117650762624,-13
599622117658449408,-13
599622117666136064,-6
599622117673822848,9
599622117681509504,60
599622117689196160,104
599622117696882944,60
599622117704569600,0
599622117712256256,11
599622117719943040,30
599622117727629696,16
599622117735316480,18
599622117743003136,30
599622117750689792,30
599622117758376576,30
599622117766063232,30
599622117773749888,23
599622117781436672,11
599622117789123328,2
599622117796810112,-4
599622117804496768,-9
599622117812183424,-13
599622117819870208,-16
599622117827556864,-13
599622117835243520,-9
599622117842930304,-6
599622117850616960,-4
599622117858303744,-2
599622117865990400,-2
599622117873677056,-2
599622117881363840,-2
599622117889050496,0
599622117896737152,-2
599622117904423936,0
599622117912110592,0
599622117919797376,0
599622117927484032,2
599622117935170688,2
599622117942857472,2
599622117950544128,4
599622117958230784,6
599622117965917568,6
599622117973604224,6
599622117981291008,6
599622117988977664,2
599622117996664320,-2
599622118004351104,-4
599622118012037760,-6
599622118019724416,2
599622118027411200,27
599622118035097856,50
599622118042784640,53
599622118050471365,53
599622118058158080,48
599622118065844736,27
599622118073531520,13
599622118081218176,9
599622118088904832,11
599622118096591616,11
599622118104278272,11
599622118111965056,9
599622118119651712,6
599622118127338368,6
599622118135025152,9
599622118142711808,11
599622118150398464,6
599622118158085248,-32
599622118165771904,-161
599622118173458688,-275
599622118181145344,-143
599622118188832000,307
599622118196518784,873
599622118204205440,1063
599622118211892096,658
599622118219578880,182
599622118227265536,36
599622118234952320,-16
599622118242638976,-92
599622118250325632,-76
599622118258012416,-53
599622118265699072,-80
599622118273385728,-78
599622118281072512,-57
599622118288759168,-57
599622118296445952,-57
599622118304132608,-48
599622118311819264,-43
599622118319506048,-43
599622118327192704,-36
599622118334879360,-30
599622118342566144,-27
599622118350252800,-23
599622118357939584,-18
599622118365626240,-13
599622118373312896,-9
599622118380999680,-4
599622118388686336,0
599622118396372992,2
599622118404059776,2
599622118411746432,9
599622118419433216,13
599622118427119872,18
599622118434806528,23
599622118442493312,27
599622118450179968,32
599622118457866624,36
599622118465553408,32
599622118473240064,23
599622118480926848,9
599622118488613504,-2
599622118496300160,-9
599622118503986944,-13
599622118511673600,-16
599622118519360256,-16
599622118527047040,-16
599622118534733696,-13
599622118542420480,-11
599622118550107136,-9
599622118557793792,-6
599622118565480576,-4
599622118573167232,-2
599622118580853888,-2
599622118588540672,-2
599622118596227328,-2
599622118603914112,0
599622118611600744,0
599622118619287424,0
599622118626974080,2
599622118634660736,4
599622118642347264,6
599622118650033920,9
599622118657720576,6
599622118665407232,6
599622118673093888,9
599622118680780544,11
599622118688467072,6
599622118696153728,2
599622118703840384,-2
599622118711527040,-2
599622118719213696,-2
599622118726900352,9
599622118734586880,39
599622118742273536,57
599622118749960192,55
599622118757646848,53
599622118765333504,41
599622118773020160,20
599622118780706688,6
599622118788393344,11
599622118796080000,16
599622118803766656,16
599622118811453312,16
599622118819139968,13
599622118826826496,11
599622118834513152,11
599622118842199808,11
599622118849886464,11
599622118857573120,6
599622118865259776,-53
599622118872946304,-194
599622118880632960,-261
599622118888319616,-46
599622118896006272,439
599622118903692928,889
599622118911379584,875
599622118919066112,411
599622118926752768,57
599622118934439424,-6
599622118942126080,-55
599622118949812736,-90
599622118957499392,-32
599622118965185920,6
599622118972872576,-23
599622118980559232,-50
599622118988245888,-43
599622118995932544,-16
599622119003619072,18
599622119011305728,20
599622119018992384,-25
599622119026679040,-36
599622119034365696,-16
599622119042052352,-16
599622119049738880,-20
599622119057425536,-13
599622119065112192,-6
599622119072798848,-4
599622119080485504,-2
599622119088172160,2
599622119095858688,6
599622119103545344,11
599622119111232000,16
599622119118918656,18
599622119126605312,23
599622119134291968,27
599622119141978496,30
599622119149665152,32
599622119157351808,36
599622119165038464,36
599622119172725040,25
599622119180411392,11
599622119188097792,-2
599622119195784064,-16
599622119203470464,-25
599622119211156864,-30
599622119218843136,-32
599622119226529536,-34
599622119234215936,-34
599622119241902208,-32
599622119249588608,-30
599622119257275008,-30
599622119264961280,-27
599622119272647680,-25
599622119280333952,-25
599622119288020352,-23
599622119295706752,-20
599622119303393024,-16
599622119311079424,-13
599622119318765824,-11
599622119326452096,-11
599622119334138496,-11
599622119341824896,-9
599622119349511168,-9
599622119357197568,-6
599622119364883968,-4
599622119372570240,-4
599622119380256640,-2
599622119387943040,-2
599622119395629312,-4
599622119403315712,-6
599622119411002112,-11
599622119418688384,-13
599622119426374784,-16
599622119434061184,-11
599622119441747456,11
599622119449433856,39
599622119457120128,43
599622119464806528,41
599622119472492928,39
599622119480179200,20
599622119487865600,4
599622119495552000,2
599622119503238272,2
599622119510924672,4
599622119518611072,4
599622119526297344,2
599622119533983744,2
599622119541670144,2
599622119549356416,4
599622119557042816,4
599622119564729216,4
599622119572415488,-18
599622119580101888,-113
599622119587788288,-244
599622119595474560,-201
599622119603160960,147
599622119610847232,651
599622119618533632,912
599622119626220032,644
599622119633906304,189
599622119641592704,2
599622119649279104,-27
599622119656965376,-83
599622119664651776,-69
599622119672338176,-27
599622119680024448,-46
599622119687710848,-57
599622119695397248,-36
599622119703083520,-36
599622119710769920,-39
599622119718456320,-27
599622119726142592,-23
599622119733828984,-20
599622119741515776,-16
599622119749202560,-11
599622119756889344,-9
599622119764576128,-6
599622119772262912,-2
599622119779949696,0
599622119787636480,4
599622119795323136,6
599622119803009920,11
599622119810696704,13
599622119818383488,18
599622119826070272,20
599622119833757056,23
599622119841443840,27
599622119849130624,30
599622119856817408,32
599622119864504192,36
599622119872190976,39
599622119879877760,34
599622119887564416,23
599622119895251200,11
599622119902937984,0
599622119910624768,-9
599622119918311552,-16
599622119925998336,-20
599622119933685120,-23
599622119941371904,-18
599622119949058688,18
599622119956745472,78
599622119964432256,60
599622119972119040,-13
599622119979805696,-23
599622119987492480,-4
599622119995179264,-13
599622120002866048,-20
599622120010552832,-11
599622120018239616,-11
599622120025926400,-13
599622120033613184,-9
599622120041299968,-6
599622120048986752,-6
599622120056673536,-4
599622120064360320,-2
599622120072046976,-2
599622120079733760,0
599622120087420544,0
599622120095107328,0
599622120102794112,2
599622120110480896,2
599622120118167680,2
599622120125854464,2
599622120133541248,2
599622120141228032,-2
599622120148914816,-6
599622120156601600,-9
599622120164288384,-13
599622120171975040,-13
599622120179661824,4
599622120187348608,34
599622120195035392,43
599622120202722176,41
599622120210408960,46
599622120218095744,34
599622120225782528,13
599622120233469312,2
599622120241156096,2
599622120248842880,4
599622120256529664,6
599622120264216320,4
599622120271903104,2
599622120279589888,4
599622120287276672,4
599622120294963454,4
599622120302650240,4
599622120310337024,-2
599622120318023808,-67
599622120325710592,-208
599622120333397376,-265
599622120341084160,-41
599622120348770944,464
599622120356457600,952
599622120364144384,947
599622120371831168,469
599622120379517952,99
599622120387204736,18
599622120394891520,-46
599622120402578304,-97
599622120410265088,-69
599622120417951872,-64
599622120425638656,-87
599622120433325440,-78
599622120441012224,-64
599622120448698880,-67
599622120456385664,-62
599622120464072448,-53
599622120471759232,-50
599622120479446016,-46
599622120487132800,-41
599622120494819584,-39
599622120502506368,-34
599622120510193152,-27
599622120517879936,-25
599622120525566720,-20
599622120533253504,-18
599622120540940160,-13
599622120548626944,-9
599622120556313728,-6
599622120564000512,-4
599622120571687296,-2
599622120579374080,2
599622120587060864,6
599622120594747648,9
599622120602434432,11
599622120610121216,16
599622120617808000,20
599622120625494784,20
599622120633181440,11
599622120640868224,2
599622120648555008,-4
599622120656241792,-9
599622120663928576,-13
599622120671615360,-18
599622120679302144,-16
599622120686988928,-16
599622120694675712,-16
599622120702362496,-13
599622120710049280,-11
599622120717736064,-11
599622120725422720,-11
599622120733109504,-11
599622120740796288,-11
599622120748483072,-13
599622120756169856,-13
599622120763856640,-11
599622120771543424,-6
599622120779230208,-6
599622120786916992,-9
599622120794603776,-6
599622120802290560,-4
599622120809977344,-6
599622120817664128,-11
599622120825350784,-6
599622120833037568,2
599622120840724352,2
599622120848411136,0
599622120856097920,2
599622120863784960,2
599622120871472000,2
599622120879158912,2
599622120886845952,2
599622120894532864,4
599622120902219904,4
599622120909906816,4
599622120917593856,4
599622120925280768,2
599622120932967808,-2
599622120940654848,-9
599622120948341760,-11
599622120956028800,-13
599622120963715712,-2
599622120971402752,30
599622120979089664,48
599622120986776704,46
599622120994463616,46
599622121002150656,41
599622121009837568,23
599622121017524608,9
599622121025211648,6
599622121032898560,11
599622121040585600,11
599622121048272512,9
599622121055959552,9
599622121063646464,9
599622121071333504,9
599622121079020416,9
599622121086707456,11
599622121094394496,6
599622121102081408,-41
599622121109768448,-177
599622121117455360,-272
599622121125142400,-104
599622121132829312,374
599622121140516352,919
599622121148203264,1033
599622121155890304,587
599622121163577216,152
599622121171264256,34
599622121178951296,-25
599622121186638208,-94
599622121194325248,-76
599622121202012160,-60
599622121209699200,-83
599622121217386112,-76
599622121225073152,-60
599622121232760064,-62
599622121240447104,-60
599622121248134144,-48
599622121255821056,-46
599622121263508096,-43
599622121271195008,-36
599622121278882048,-30
599622121286568960,-30
599622121294256000,-25
599622121301942912,-18
599622121309629952,-13
599622121317316864,-11
599622121325003904,-6
599622121332690944,-4
599622121340377856,-2
599622121348064896,0
599622121355751808,4
599622121363438848,9
599622121371125760,13
599622121378812800,18
599622121386499712,23
599622121394186752,25
599622121401873792,27
599622121409560704,27
599622121417247643,23
599622121424934272,11
599622121432620928,2
599622121440307712,-4
599622121447994368,-9
599622121455681024,-13
599622121463367808,-13
599622121471054464,-13
599622121478741248,-11
599622121486427904,-11
599622121494114560,-9
599622121501801344,-6
599622121509488000,-4
599622121517174656,-4
599622121524861440,-4
599622121532548096,-2
599622121540234880,0
599622121547921536,2
599622121555608192,2
599622121563294976,2
599622121570981632,4
599622121578668288,6
599622121586355072,9
599622121594041728,9
599622121601728512,9
599622121609415168,9
599622121617101824,9
599622121624788608,11
599622121632475264,13
599622121640161920,11
599622121647848704,11
599622121655535360,13
599622121663222144,13
599622121670908800,16
599622121678595456,18
599622121686282240,18
599622121693968896,18
599622121701655552,16
599622121709342336,16
599622121717028992,13
599622121724715776,9
599622121732402432,4
599622121740089088,2
599622121747775872,-2
599622121755462528,9
599622121763149184,39
599622121770835968,55
599622121778522624,53
599622121786209408,55
599622121793896064,50
599622121801582720,27
599622121809269504,18
599622121816956160,16
599622121824642816,16
599622121832329600,16
599622121840016256,16
599622121847703040,13
599622121855389696,13
599622121863076352,13
599622121870763136,13
599622121878449792,13
599622121886136448,6
599622121893823232,-48
599622121901509888,-182
599622121909196672,-251
599622121916883328,-43
599622121924569984,427
599622121932256768,866
599622121939943424,850
599622121947630080,399
599622121955316864,57
599622121963003520,-4
599622121970690304,-48
599622121978377022,-83
599622121986063616,-41
599622121993750272,-32
599622122001436928,-57
599622122009123456,-48
599622122016810112,-34
599622122024496768,-36
599622122032183424,-36
599622122039870080,-25
599622122047556736,-20
599622122055243264,-20
599622122062929920,-13
599622122070616576,-9
599622122078303232,-4
599622122085989888,-2
599622122093676544,2
599622122101363072,6
599622122109049728,11
599622122116736384,16
599622122124423040,20
599622122132109696,23
599622122139796352,25
599622122147482880,27
599622122155169536,34
599622122162856192,36
599622122170542848,39
599622122178229504,43
599622122185916160,48
599622122193602688,48
599622122201289344,39
599622122208976000,25
599622122216662656,11
599622122224349312,-2
599622122232035968,-13
599622122239722496,-18
599622122247409152,-23
599622122255095808,-53
599622122262782464,-143
599622122270469120,-164
599622122278155776,-48
599622122285842304,4
599622122293528960,-36
599622122301215616,-25
599622122308902272,-2
599622122316588928,-11
599622122324275584,-13
599622122331962112,-4
599622122339648768,-2
599622122347335424,-4
599622122355022080,0
599622122362708736,4
599622122370395264,4
599622122378081920,6
599622122385768576,6
599622122393455232,6
599622122401141888,9
599622122408828544,11
599622122416515072,11
599622122424201728,11
599622122431888384,9
599622122439575040,11
599622122447261696,11
599622122454948352,11
599622122462634880,11
599622122470321536,13
599622122478008192,13
599622122485694848,11
599622122493381504,11
599622122501068160,11
599622122508754688,9
599622122516441344,4
599622122524128000,2
599622122531814656,-2
599622122539501318,-2
599622122547187712,18
599622122554874112,46
599622122562560384,53
599622122570246784,53
599622122577933184,53
599622122585619456,41
599622122593305856,23
599622122600992256,16
599622122608678528,13
599622122616364928,13
599622122624051328,16
599622122631737600,13
599622122639424000,11
599622122647110272,13
599622122654796672,13
599622122662483072,13
599622122670169344,13
599622122677855744,2
599622122685542144,-76
599622122693228416,-214
599622122700914816,-231
599622122708601216,48
599622122716287488,547
599622122723973888,915
599622122731660288,776
599622122739346560,312
599622122747032960,41
599622122754719360,-4
599622122762405632,-57
599622122770092032,-73
599622122777778432,-34
599622122785464704,-41
599622122793151104,-60
599622122800837504,-46
599622122808523776,-36
599622122816210176,-39
599622122823896448,-34
599622122831582848,-27
599622122839269248,-23
599622122846955520,-20
599622122854641920,-16
599622122862328320,-11
599622122870014592,-6
599622122877700992,-4
599622122885387392,0
599622122893073664,4
599622122900760064,9
599622122908446464,11
599622122916132736,13
599622122923819136,16
599622122931505536,20
599622122939191808,23
599622122946878208,25
599622122954564608,27
599622122962250880,34
599622122969937280,39
599622122977623552,39
599622122985309952,39
599622122992996352,34
599622123000682624,20
599622123008369024,6
599622123016055424,-2
599622123023741696,-9
599622123031428096,-13
599622123039114496,-18
599622123046800768,-20
599622123054487168,-18
599622123062173568,-16
599622123069859840,-13
599622123077546240,-13
599622123085232640,-13
599622123092918912,-11
599622123100605262,-9
599622123108292096,-9
599622123115978880,-6
599622123123665664,-6
599622123131352448,-6
599622123139039232,-4
599622123146726016,0
599622123154412800,0
599622123162099456,0
599622123169786240,4
599622123177473024,4
599622123185159808,4
599622123192846592,9
599622123200533376,9
599622123208220160,9
599622123215906944,9
599622123223593728,11
599622123231280512,9
599622123238967296,11
599622123246654080,11
599622123254340736,11
599622123262027520,11
599622123269714304,11
599622123277401088,11
599622123285087872,11
599622123292774656,13
599622123300461440,13
599622123308148224,13
599622123315835008,13
599622123323521792,13
599622123331208576,16
599622123338895360,13
599622123346582016,13
599622123354268800,16
599622123361955584,16
599622123369642368,13
599622123377329152,9
599622123385015936,2
599622123392702720,0
599622123400389504,-2
599622123408076288,9
599622123415763072,36
599622123423449856,55
599622123431136640,53
599622123438823296,53
599622123446510080,50
599622123454196864,30
599622123461883648,13
599622123469570432,13
599622123477257216,16
599622123484944000,16
599622123492630784,16
599622123500317568,13
599622123508004352,13
599622123515691136,16
599622123523377920,13
599622123531064704,13
599622123538751360,6
599622123546438144,-57
599622123554124928,-201
599622123561811712,-256
599622123569498496,-30
599622123577185280,483
599622123584872064,982
599622123592558848,970
599622123600245632,483
599622123607932416,117
599622123615619200,34
599622123623305984,-36
599622123630992640,-92
599622123638679424,-67
599622123646366208,-64
599622123654052992,-83
599622123661739732,-71
599622123669426560,-60
599622123677113344,-64
599622123684800128,-57
599622123692486912,-48
599622123700173696,-48
599622123707860480,-43
599622123715547264,-36
599622123723233920,-34
599622123730920704,-32
599622123738607488,-25
599622123746294272,-20
599622123753981056,-18
599622123761667840,-13
599622123769354624,-11
599622123777041408,-9
599622123784728192,-6
599622123792414976,-4
599622123800101760,0
599622123807788544,2
599622123815475200,6
599622123823161984,9
599622123830848768,13
599622123838535552,20
599622123846222336,23
599622123853909120,23
599622123861595904,18
599622123869282688,9
599622123876969472,2
599622123884656256,-4
599622123892343040,-9
599622123900029824,-13
599622123907716480,-13
599622123915403264,-13
599622123923090048,-13
599622123930776832,-11
599622123938463616,-11
599622123946150400,-11
599622123953837184,-9
599622123961523968,-9
599622123969210752,-6
599622123976897536,-6
599622123984584320,-4
599622123992271104,-2
599622123999957760,-2
599622124007644544,-2
599622124015331328,0
599622124023018112,0
599622124030704896,2
599622124038391680,4
599622124046078464,6
599622124053765248,6
599622124061452032,6
599622124069138816,9
599622124076825600,11
599622124084512384,11
599622124092199040,11
599622124099885824,11
599622124107572608,13
599622124115259392,13
599622124122946176,13
599622124130632960,13
599622124138319744,16
599622124146006528,16
599622124153693312,13
599622124161380096,13
599622124169066880,13
599622124176753664,16
599622124184440448,16
599622124192127104,16
599622124199813888,18
599622124207500672,18
599622124215187456,18
599622124222874198,18
599622124230561024,18
599622124238247808,18
599622124245934592,18
599622124253621376,20
599622124261308160,20
599622124268994944,20
599622124276681728,20
599622124284368384,23
599622124292055168,23
599622124299741952,23
599622124307428736,20
599622124315115520,20
599622124322802304,16
599622124330489088,11
599622124338175872,6
599622124345862656,6
599622124353549440,30
599622124361236224,60
599622124368923008,67
599622124376609664,64
599622124384296448,64
599622124391983232,50
599622124399670016,34
599622124407356800,30
599622124415043584,32
599622124422730368,30
599622124430417152,30
599622124438103936,30
599622124445790720,30
599622124453477504,27
599622124461164288,27
599622124468850944,27
599622124476537728,27
599622124484224512,-4
599622124491911296,-122
599622124499598080,-242
599622124507284864,-143
599622124514971648,270
599622124522658432,815
599622124530345216,1033
599622124538032000,679
599622124545718784,212
599622124553405568,57
599622124561092224,11
599622124568779008,-67
599622124576465792,-64
599622124584152576,-39
599622124591839360,-57
599622124599526144,-60
599622124607212928,-43
599622124614899712,-43
599622124622586496,-43
599622124630273280,-36
599622124637960064,-30
599622124645646848,-27
599622124653333504,-20
599622124661020288,-16
599622124668707072,-11
599622124676393856,-11
599622124684080640,-6
599622124691767424,0
599622124699454208,2
599622124707140992,6
599622124714827776,11
599622124722514560,13
599622124730201344,16
599622124737888128,23
599622124745574912,25
599622124753261568,27
599622124760948352,32
599622124768635136,39
599622124776321920,41
599622124784008664,43
599622124791695488,43
599622124799382272,41
599622124807069056,27
599622124814755840,13
599622124822442624,6
599622124830129408,0
599622124837816192,-9
599622124845502848,-11
599622124853189632,-11
599622124860876416,-11
599622124868563200,-13
599622124876249984,-13
599622124883936768,-9
599622124891623552,-6
599622124899310336,-6
599622124906997120,-4
599622124914683904,-2
599622124922370688,-4
599622124930057472,-2
599622124937744128,0
599622124945430912,2
599622124953117696,2
599622124960804480,4
599622124968491264,4
599622124976178048,6
599622124983864832,6
599622124991551616,6
599622124999238400,9
599622125006925184,9
599622125014611968,9
599622125022298752,11
599622125029985408,11
599622125037672192,11
599622125045358976,11
599622125053045760,16
599622125060732544,16
599622125068419328,13
599622125076106112,13
599622125083792896,16
599622125091479680,16
599622125099166464,16
599622125106853248,16
599622125114540032,13
599622125122226688,13
599622125129913472,16
599622125137600256,16
599622125145287040,16
599622125152973824,18
599622125160660608,18
599622125168347392,18
599622125176034176,20
599622125183720960,18
599622125191407744,16
599622125199094528,11
599622125206781312,9
599622125214467968,4
599622125222154752,4
599622125229841536,27
599622125237528320,55
599622125245215104,62
599622125252901888,57
599622125260588672,55
599622125268275456,39
599622125275962240,23
599622125283649024,18
599622125291335808,18
599622125299022592,18
599622125306709376,20
599622125314396032,20
599622125322082816,18
599622125329769600,18
599622125337456384,18
599622125345143130,18
599622125352829952,18
599622125360516736,-9
599622125368203520,-115
599622125375890304,-235
599622125383577088,-152
599622125391263872,231
599622125398950656,714
599622125406637312,887
599622125414324096,563
599622125422010880,140
599622125429697664,2
599622125437384448,-23
599622125445071232,-69
599622125452758016,-46
599622125460444800,-13
599622125468131584,-39
599622125475818368,-46
599622125483505152,-23
599622125491191936,-23
599622125498878592,-25
599622125506565376,-16
599622125514252160,-11
599622125521938944,-9
599622125529625728,-4
599622125537312512,0
599622125544999296,4
599622125552686080,9
599622125560372864,13
599622125568059648,16
599622125575746432,20
599622125583433216,25
599622125591119872,30
599622125598806656,32
599622125606493440,34
599622125614180224,39
599622125621867008,43
599622125629553792,48
599622125637240576,50
599622125644927360,55
599622125652614144,60
599622125660300928,60
599622125667987712,57
599622125675674496,46
599622125683361152,30
599622125691047936,16
599622125698734720,6
599622125706421504,-2
599622125714108288,-9
599622125721795072,-13
599622125729481856,-13
599622125737168640,-13
599622125744855424,-11
599622125752542208,-9
599622125760228992,-9
599622125767915776,-9
599622125775602432,-6
599622125783289216,-4
599622125790976000,-4
599622125798662784,-2
599622125806349568,-2
599622125814036352,0
599622125821723136,2
599622125829409920,2
599622125837096704,4
599622125844783488,6
599622125852470272,9
599622125860157056,13
599622125867843840,13
599622125875530496,16
599622125883217280,16
599622125890904064,16
599622125898590848,16
599622125906277596,18
599622125913964416,16
599622125921651200,16
599622125929337984,18
599622125937024768,18
599622125944711552,18
599622125952398336,16
599622125960085120,18
599622125967771776,18
599622125975458560,16
599622125983145344,18
599622125990832128,18
599622125998518912,6
599622126006205696,-4
599622126013892480,6
599622126021579264,25
599622126029266048,20
599622126036952832,18
599622126044639616,20
599622126052326400,16
599622126060013056,9
599622126067699840,6
599622126075386624,6
599622126083073408,23
599622126090760192,53
599622126098446976,62
599622126106133760,60
599622126113820544,62
599622126121507328,53
599622126129194112,36
599622126136880896,25
599622126144567680,23
599622126152254336,25
599622126159941120,27
599622126167627904,23
599622126175314688,23
599622126183001472,23
599622126190688256,23
599622126198375040,23
599622126206061824,23
599622126213748608,6
599622126221435392,-78
599622126229122176,-219
599622126236808960,-217
599622126244495616,87
599622126252182400,628
599622126259869184,1026
599622126267555968,859
599622126275242752,355
599622126282929536,83
599622126290616320,27
599622126298303104,-48
599622126305989888,-76
599622126313676672,-46
599622126321363456,-55
599622126329050240,-69
599622126336736896,-53
599622126344423680,-48
599622126352110464,-50
599622126359797248,-43
599622126367484032,-36
599622126375170816,-32
599622126382857600,-30
599622126390544384,-25
599622126398231168,-20
599622126405917952,-16
599622126413604736,-11
599622126421291520,-9
599622126428978304,-4
599622126436664960,0
599622126444351744,2
599622126452038528,4
599622126459725312,9
599622126467412062,13
599622126475098752,16
599622126482785408,20
599622126490472192,23
599622126498158848,30
599622126505845504,34
599622126513532288,39
599622126521218944,41
599622126528905728,39
599622126536592384,30
599622126544279040,18
599622126551965824,6
599622126559652480,2
599622126567339136,-2
599622126575025920,-6
599622126582712576,-9
599622126590399360,-9
599622126598086016,-9
599622126605772672,-6
599622126613459456,-6
599622126621146112,-4
599622126628832768,-4
599622126636519552,-2
599622126644206208,-2
599622126651892992,-2
599622126659579648,-2
599622126667266304,0
599622126674953088,0
599622126682639744,2
599622126690326400,4
599622126698013184,4
599622126705699840,4
599622126713386624,6
599622126721073280,9
599622126728759936,9
599622126736446720,11
599622126744133376,13
599622126751820032,13
599622126759506816,13
599622126767193472,16
599622126774880256,16
599622126782566912,16
599622126790253568,16
599622126797940352,18
599622126805627008,18
599622126813313664,18
599622126821000448,18
599622126828687104,18
599622126836373888,18
599622126844060544,18
599622126851747200,18
599622126859433984,20
599622126867120640,20
599622126874807296,20
599622126882494080,23
599622126890180736,23
599622126897867520,23
599622126905554176,23
599622126913240832,23
599622126920927616,23
599622126928614272,23
599622126936300928,25
599622126943987712,20
599622126951674368,16
599622126959361152,13
599622126967047808,9
599622126974734464,6
599622126982421248,18
599622126990107904,48
599622126997794560,64
599622127005481344,64
599622127013168000,64
599622127020854784,60
599622127028541441,39
599622127036227840,27
599622127043914240,25
599622127051600640,27
599622127059287168,27
599622127066973568,25
599622127074659968,25
599622127082346368,25
599622127090032768,25
599622127097719296,25
599622127105405696,25
599622127113092096,13
599622127120778496,-60
599622127128464896,-203
599622127136151424,-238
599622127143837824,20
599622127151524224,547
599622127159210624,1003
599622127166897024,926
599622127174583552,432
599622127182269952,108
599622127189956352,39
599622127197642752,-32
599622127205329152,-73
599622127213015680,-41
599622127220702080,-43
599622127228388480,-62
599622127236074880,-48
599622127243761280,-39
599622127251447680,-39
599622127259134208,-30
599622127266820608,-20
599622127274507008,-20
599622127282193408,-16
599622127289879808,-9
599622127297566336,-4
599622127305252736,-2
599622127312939136,2
599622127320625536,6
599622127328311936,11
599622127335998464,16
599622127343684864,18
599622127351371264,20
599622127359057664,27
599622127366744064,34
599622127374430592,36
599622127382116992,43
599622127389803392,50
599622127397489792,55
599622127405176192,60
599622127412862720,62
599622127420549120,62
599622127428235520,57
599622127435921920,50
599622127443608320,34
599622127451294848,18
599622127458981248,9
599622127466667648,2
599622127474354048,-4
599622127482040448,-6
599622127489726976,-9
599622127497413376,-6
599622127505099776,-4
599622127512786176,-2
599622127520472576,0
599622127528159104,2
599622127535845504,4
599622127543531904,0
599622127551218304,0
599622127558904704,4
599622127566591232,9
599622127574277632,9
599622127581964032,6
599622127589650476,9
599622127597337216,11
599622127605024000,11
599622127612710784,11
599622127620397568,13
599622127628084352,16
599622127635771136,18
599622127643457920,20
599622127651144576,18
599622127658831360,18
599622127666518144,16
599622127674204928,18
599622127681891712,20
599622127689578496,20
599622127697265280,20
599622127704952064,23
599622127712638848,20
599622127720325632,20
599622127728012416,20
599622127735699200,20
599622127743385856,23
599622127751072640,25
599622127758759424,23
599622127766446208,20
599622127774132992,23
599622127781819776,23
599622127789506560,20
599622127797193344,23
599622127804880128,23
599622127812566912,23
599622127820253696,23
599622127827940480,20
599622127835627136,13
599622127843313920,11
599622127851000704,6
599622127858687488,9
599622127866374272,32
599622127874061056,60
599622127881747840,67
599622127889434624,60
599622127897121408,57
599622127904808192,43
599622127912494976,30
599622127920181760,23
599622127927868416,23
599622127935555200,25
599622127943241984,23
599622127950928768,20
599622127958615552,20
599622127966302336,23
599622127973989120,20
599622127981675904,20
599622127989362688,23
599622127997049472,-2
599622128004736256,-99
599622128012423040,-226
599622128020109696,-175
599622128027796480,180
599622128035483264,670
599622128043170048,889
599622128050856832,603
599622128058543616,168
599622128066230400,6
599622128073917184,-18
599622128081603968,-67
599622128089290752,-46
599622128096977536,-9
599622128104664320,-32
599622128112351104,-41
599622128120037760,-20
599622128127724544,-16
599622128135411328,-20
599622128143098112,-11
599622128150784942,-6
599622128158471424,-4
599622128166157952,0
599622128173844352,6
599622128181530880,9
599622128189217408,13
599622128196903936,16
599622128204590336,18
599622128212276864,25
599622128219963392,30
599622128227649920,32
599622128235336320,36
599622128243022848,41
599622128250709376,46
599622128258395904,50
599622128266082304,55
599622128273768832,60
599622128281455360,64
599622128289141888,67
599622128296828288,69
599622128304514816,64
599622128312201344,53
599622128319887872,36
599622128327574272,18
599622128335260800,6
599622128342947328,-2
599622128350633856,-9
599622128358320256,-13
599622128366006784,-16
599622128373693312,-16
599622128381379712,-13
599622128389066240,-11
599622128396752768,-11
599622128404439296,-9
599622128412125696,-9
599622128419812224,-6
599622128427498752,-4
599622128435185280,-4
599622128442871680,-4
599622128450558208,-2
599622128458244736,2
599622128465931264,2
599622128473617664,4
599622128481304192,4
599622128488990720,9
599622128496677248,11
599622128504363648,11
599622128512050176,11
599622128519736704,11
599622128527423232,13
599622128535109632,13
599622128542796160,16
599622128550482688,16
599622128558169088,16
599622128565855616,16
599622128573542144,18
599622128581228672,20
599622128588915072,20
599622128596601600,20
599622128604288128,18
599622128611974656,18
599622128619661056,20
599622128627347584,20
599622128635034112,20
599622128642720640,23
599622128650407040,23
599622128658093568,23
599622128665780096,23
599622128673466624,23
599622128681153024,23
599622128688839552,20
599622128696526080,18
599622128704212608,13
599622128711899060,6
599622128719585664,4
599622128727272320,16
599622128734959104,43
599622128742645760,64
599622128750332416,62
599622128758019200,62
599622128765705856,60
599622128773392640,41
599622128781079296,27
599622128788765952,23
599622128796452736,23
599622128804139392,25
599622128811826048,25
599622128819512832,23
599622128827199488,23
599622128834886272,23
599622128842572928,23
599622128850259584,23
599622128857946368,18
599622128865633024,-30
599622128873319680,-164
599622128881006464,-256
599622128888693120,-90
599622128896379904,379
599622128904066560,905
599622128911753216,1005
599622128919440000,580
599622128927126656,164
599622128934813312,48
599622128942500096,-13
599622128950186752,-80
599622128957873536,-62
599622128965560192,-48
599622128973246848,-69
599622128980933632,-64
599622128988620288,-48
599622128996306944,-53
599622129003993728,-50
599622129011680384,-39
599622129019367168,-34
599622129027053824,-34
599622129034740480,-27
599622129042427264,-23
599622129050113920,-20
599622129057800576,-16
599622129065487360,-11
599622129073174016,-6
599622129080860800,-4
599622129088547456,0
599622129096234112,4
599622129103920896,6
599622129111607552,11
599622129119294208,16
599622129126980992,23
599622129134667648,27
599622129142354432,34
599622129150041088,39
599622129157727744,43
599622129165414528,46
599622129173101184,43
599622129180787840,34
599622129188474624,20
599622129196161280,9
599622129203848064,0
599622129211534720,-9
599622129219221376,-13
599622129226908160,-13
599622129234594816,-16
599622129242281472,-16
599622129249968256,-16
599622129257654912,-13
599622129265341696,-11
599622129273028439,-9
599622129280715136,-6
599622129288401792,-6
599622129296088576,-6
599622129303775232,-4
599622129311461888,-4
599622129319148672,-2
599622129326835328,2
599622129334522112,2
599622129342208768,2
599622129349895424,4
599622129357582208,4
599622129365268864,6
599622129372955520,9
599622129380642304,9
599622129388328960,11
599622129396015744,11
599622129403702400,13
599622129411389056,13
599622129419075840,13
599622129426762496,13
599622129434449152,16
599622129442135936,18
599622129449822592,18
599622129457509376,18
599622129465196032,18
599622129472882688,18
599622129480569472,18
599622129488256128,20
599622129495942784,20
599622129503629568,20
599622129511316224,18
599622129519003008,18
599622129526689664,20
599622129534376320,20
599622129542063104,20
599622129549749760,23
599622129557436416,23
599622129565123200,23
599622129572809856,25
599622129580496640,25
599622129588183296,27
599622129595869952,30
599622129603556736,27
599622129611243392,25
599622129618930048,25
599622129626616832,25
599622129634303488,25
599622129641990272,25
599622129649676928,27
599622129657363584,27
599622129665050368,27
599622129672737024,27
599622129680423680,27
599622129688110464,27
599622129695797120,27
599622129703483904,30
599622129711170560,30
599622129718857216,27
599622129726544000,27
599622129734230656,25
599622129741917312,23
599622129749604096,18
599622129757290752,13
599622129764977536,18
599622129772664192,46
599622129780350848,71
599622129788037632,69
599622129795724288,67
599622129803410944,67
599622129811097728,55
599622129818784384,36
599622129826471168,30
599622129834157818,32
599622129841844480,34
599622129849531136,32
599622129857217920,30
599622129864904576,30
599622129872591232,30
599622129880278016,30
599622129887964672,30
599622129895651456,23
599622129903338112,-30
599622129911024768,-166
599622129918711552,-249
599622129926398208,-62
599622129934084864,432
599622129941771648,961
599622129949458304,1023
599622129957145088,568
599622129964831744,166
599622129972518400,60
599622129980205184,-11
599622129987891840,-80
599622129995578496,-60
599622130003265280,-48
599622130010951936,-71
599622130018638720,-62
599622130026325376,-48
599622130034012032,-50
599622130041698816,-48
599622130049385472,-36
599622130057072128,-34
599622130064758912,-30
599622130072445568,-23
599622130080132352,-16
599622130087819008,-13
599622130095505664,-9
599622130103192448,-4
599622130110879104,0
599622130118565760,4
599622130126252544,6
599622130133939200,13
599622130141625984,18
599622130149312640,20
599622130156999296,25
599622130164686080,32
599622130172372736,39
599622130180059392,43
599622130187746176,48
599622130195432832,50
599622130203119616,57
599622130210806272,57
599622130218492928,50
599622130226179712,36
599622130233866368,23
599622130241553024,13
599622130249239808,6
599622130256926464,2
599622130264613248,0
599622130272299904,-2
599622130279986560,-4
599622130287673344,-4
599622130295360000,-2
599622130303046656,0
599622130310733440,2
599622130318420096,4
599622130326106880,6
599622130333793536,6
599622130341480192,9
599622130349166976,13
599622130356853632,18
599622130364540288,16
599622130372227072,13
599622130379913728,13
599622130387600512,13
599622130395287201,13
599622130402973824,16
599622130410660480,16
599622130418347264,18
599622130426033920,18
599622130433720576,18
599622130441407360,18
599622130449094016,20
599622130456780800,23
599622130464467456,23
599622130472154112,27
599622130479840896,27
599622130487527552,25
599622130495214208,27
599622130502900992,30
599622130510587648,25
599622130518274432,25
599622130525961088,27
599622130533647744,27
599622130541334528,30
599622130549021184,30
599622130556707840,27
599622130564394624,27
599622130572081280,27
599622130579768064,27
599622130587454720,27
599622130595141376,27
599622130602828160,27
599622130610514816,27
599622130618201472,27
599622130625888256,27
599622130633574912,27
599622130641261696,27
599622130648948352,27
599622130656635008,27
599622130664321792,25
599622130672008448,25
599622130679695104,30
599622130687381888,27
599622130695068544,25
599622130702755328,25
599622130710441984,23
599622130718128640,23
599622130725815424,16
599622130733502080,11
599622130741188736,23
599622130748875520,50
599622130756562176,69
599622130764248960,64
599622130771935616,60
599622130779622272,53
599622130787309056,36
599622130794995712,25
599622130802682368,23
599622130810369152,25
599622130818055808,25
599622130825742592,23
599622130833429248,20
599622130841115904,23
599622130848802688,23
599622130856489344,20
599622130864176000,20
599622130871862784,4
599622130879549440,-83
599622130887236224,-217
599622130894922880,-198
599622130902609536,120
599622130910296320,617
599622130917982976,901
599622130925669632,677
599622130933356416,226
599622130941043072,18
599622130948729856,-11
599622130956416580,-60
599622130964103296,-55
599622130971789952,-18
599622130979476736,-32
599622130987163392,-46
599622130994850048,-27
599622131002536832,-20
599622131010223488,-25
599622131017910272,-18
599622131025596928,-11
599622131033283584,-9
599622131040970368,-4
599622131048657024,2
599622131056343680,4
599622131064030464,9
599622131071717120,13
599622131079403904,18
599622131087090560,23
599622131094777216,27
599622131102464000,32
599622131110150656,34
599622131117837312,39
599622131125524096,43
599622131133210752,50
599622131140897536,55
599622131148584192,60
599622131156270848,64
599622131163957632,69
599622131171644288,71
599622131179330944,69
599622131187017728,62
599622131194704384,48
599622131202391168,30
599622131210077824,16
599622131217764480,4
599622131225451264,-6
599622131233137920,-11
599622131240824576,-11
599622131248511360,-13
599622131256198016,-11
599622131263884800,-9
599622131271571456,-6
599622131279258112,-4
599622131286944896,-4
599622131294631552,-4
599622131302318208,-2
599622131310004992,-2
599622131317691648,0
599622131325378432,2
599622131333065088,4
599622131340751744,4
599622131348438528,4
599622131356125184,6
599622131363811840,9
599622131371498624,11
599622131379185280,13
599622131386872064,13
599622131394558720,16
599622131402245376,16
599622131409932160,16
599622131417618816,16
599622131425305472,16
599622131432992256,16
599622131440678912,16
599622131448365696,18
599622131456052352,18
599622131463739008,18
599622131471425792,18
599622131479112448,18
599622131486799104,18
599622131494485888,18
599622131502172544,18
599622131509859328,18
599622131517545959,18
599622131525232640,18
599622131532919296,18
599622131540606080,18
599622131548292736,18
599622131555979392,20
599622131563666176,20
599622131571352832,18
599622131579039616,20
599622131586726272,20
599622131594412928,18
599622131602099712,20
599622131609786368,20
599622131617473024,20
599622131625159808,20
599622131632846464,20
599622131640533248,20
599622131648219904,20
599622131655906560,20
599622131663593344,16
599622131671280000,13
599622131678966656,6
599622131686653440,0
599622131694340096,-34
599622131702026880,-129
599622131709713536,-203
599622131717400192,-157
599622131725086976,-41
599622131732773632,36
599622131740460288,36
599622131748147072,18
599622131755833728,23
599622131763520512,16
599622131771207168,-30
599622131778893824,-57
599622131786580608,6
599622131794267264,62
599622131801953920,34
599622131809640704,-6
599622131817327360,-53
599622131825014144,-60
599622131832700800,-90
599622131840387456,-217
599622131848074240,-240
599622131855760896,55
599622131863447552,589
599622131871134336,892
599622131878820992,600
599622131886507776,92
599622131894194432,-101
599622131901881088,-46
599622131909567872,-23
599622131917254528,-32
599622131924941184,-16
599622131932627968,-23
599622131940314624,-108
599622131948001408,-240
599622131955688064,-270
599622131963374720,-219
599622131971061504,-214
599622131978748160,-217
599622131986434816,-189
599622131994121600,-164
599622132001808256,-140
599622132009495040,-69
599622132017181696,18
599622132024868352,-13
599622132032555136,-85
599622132040241792,-20
599622132047928448,16
599622132055615232,-92
599622132063301888,-131
599622132070988672,-57
599622132078675338,-43
599622132086361984,-67
599622132094048640,-13
599622132101735424,67
599622132109422080,48
599622132117108736,16
599622132124795520,92
599622132132482176,108
599622132140168960,43
599622132147855616,60
599622132155542272,53
599622132163229056,-71
599622132170915712,-106
599622132178602368,23
599622132186289152,80
599622132193975808,-16
599622132201662592,-43
599622132209349248,60
599622132217035904,97
599622132224722688,57
599622132232409344,67
599622132240096000,80
599622132247782784,53
599622132255469440,50
599622132263156224,73
599622132270842880,71
599622132278529536,62
599622132286216320,69
599622132293902976,71
599622132301589632,67
599622132309276416,67
599622132316963072,67
599622132324649856,62
599622132332336512,57
599622132340023168,57
599622132347709952,62
599622132355396608,67
599622132363083264,64
599622132370770048,64
599622132378456704,64
599622132386143488,62
599622132393830144,62
599622132401516800,62
599622132409203584,62
599622132416890240,60
599622132424576896,60
599622132432263680,57
599622132439950336,57
599622132447637120,57
599622132455323776,55
599622132463010432,55
599622132470697216,53
599622132478383872,53
599622132486070528,50
599622132493757312,50
599622132501443968,50
599622132509130752,50
599622132516817408,48
599622132524504064,48
599622132532190848,46
599622132539877504,46
599622132547564160,46
599622132555250944,46
599622132562937600,43
599622132570624384,43
599622132578311040,43
599622132585997696,41
599622132593684480,41
599622132601371136,43
599622132609057792,43
599622132616744576,41
599622132624431232,41
599622132632118016,41
599622132639804717,41
599622132647491328,41
599622132655177984,41
599622132662864768,41
599622132670551424,39
599622132678238080,39
599622132685924864,36
599622132693611520,32
599622132701298304,27
599622132708984960,23
599622132716671616,25
599622132724358400,50
599622132732045056,76
599622132739731712,78
599622132747418496,73
599622132755105152,71
599622132762791936,62
599622132770478592,43
599622132778165248,34
599622132785852032,36
599622132793538688,39
599622132801225344,39
599622132808912128,34
599622132816598784,36
599622132824285568,36
599622132831972224,34
599622132839658880,32
599622132847345664,25
599622132855032320,-39
599622132862718976,-182
599622132870405760,-242
599622132878092416,-20
599622132885779200,494
599622132893465856,1005
599622132901152512,1009
599622132908839296,531
599622132916525952,154
599622132924212608,57
599622132931899392,-20
599622132939586048,-80
599622132947272832,-55
599622132954959488,-50
599622132962646144,-69
599622132970332928,-60
599622132978019584,-48
599622132985706240,-50
599622132993393024,-46
599622133001079680,-36
599622133008766464,-32
599622133016453120,-30
599622133024139776,-25
599622133031826560,-20
599622133039513216,-16
599622133047199872,-9
599622133054886656,-6
599622133062573312,-2
599622133070260096,2
599622133077946752,6
599622133085633408,11
599622133093320192,16
599622133101006848,18
599622133108693504,25
599622133116380288,30
599622133124066944,34
599622133131753728,41
599622133139440384,46
599622133147127040,53
599622133154813824,57
599622133162500480,57
599622133170187136,50
599622133177873920,36
599622133185560576,25
599622133193247360,13
599622133200934096,6
599622133208620800,-2
599622133216307456,-6
599622133223994240,-6
599622133231680896,-6
599622133239367552,-6
599622133247054336,-4
599622133254740992,-4
599622133262427776,0
599622133270114432,2
599622133277801088,4
599622133285487872,4
599622133293174528,6
599622133300861184,4
599622133308547968,4
599622133316234624,6
599622133323921408,9
599622133331608064,11
599622133339294720,11
599622133346981504,13
599622133354668160,16
599622133362354816,16
599622133370041600,13
599622133377728256,16
599622133385415040,18
599622133393101696,20
599622133400788352,23
599622133408475136,23
599622133416161792,23
599622133423848448,23
599622133431535232,23
599622133439221888,25
599622133446908672,23
599622133454595328,23
599622133462281984,25
599622133469968768,27
599622133477655424,27
599622133485342080,25
599622133493028864,27
599622133500715520,27
599622133508402304,25
599622133516088960,25
599622133523775616,27
599622133531462400,25
599622133539149056,25
599622133546835712,25
599622133554522496,30
599622133562209152,30
599622133569895936,27
599622133577582592,27
599622133585269248,27
599622133592956032,30
599622133600642688,27
599622133608329344,27
599622133616016128,30
599622133623702784,34
599622133631389568,34
599622133639076224,32
599622133646762880,30
599622133654449664,27
599622133662136320,25
599622133669822976,18
599622133677509760,13
599622133685196416,30
599622133692883200,60
599622133700569856,71
599622133708256512,69
599622133715943296,64
599622133723629952,55
599622133731316608,39
599622133739003392,32
599622133746690048,32
599622133754376832,34
599622133762063479,30
599622133769750144,27
599622133777436800,30
599622133785123584,27
599622133792810240,27
599622133800496896,27
599622133808183680,25
599622133815870336,4
599622133823557120,-94
599622133831243776,-228
599622133838930432,-180
599622133846617216,173
599622133854303872,674
599622133861990528,922
599622133869677312,649
599622133877363968,198
599622133885050752,18
599622133892737408,-11
599622133900424064,-67
599622133908110848,-55
599622133915797504,-16
599622133923484160,-34
599622133931170944,-43
599622133938857600,-25
599622133946544384,-23
599622133954231040,-25
599622133961917696,-16
599622133969604480,-9
599622133977291136,-6
599622133984977792,-2
599622133992664576,0
599622134000351232,4
599622134008038016,9
599622134015724672,16
599622134023411328,20
599622134031098112,23
599622134038784768,27
599622134046471424,32
599622134054158208,34
599622134061844864,39
599622134069531648,46
599622134077218304,55
599622134084904960,60
599622134092591744,67
599622134100278400,73
599622134107965056,76
599622134115651840,78
599622134123338496,76
599622134131025280,64
599622134138711936,46
599622134146398592,25
599622134154085376,9
599622134161772032,0
599622134169458688,-11
599622134177145472,-18
599622134184832128,-18
599622134192518912,-18
599622134200205568,-18
599622134207892224,-16
599622134215579008,-13
599622134223265664,-13
599622134230952320,-9
599622134238639104,-6
599622134246325760,-6
599622134254012544,-6
599622134261699200,-6
599622134269385856,-4
599622134277072640,-2
599622134284759296,-2
599622134292445952,0
599622134300132736,0
599622134307819392,4
599622134315506176,6
599622134323192858,9
599622134330879488,9
599622134338566144,9
599622134346252928,11
599622134353939584,13
599622134361626240,13
599622134369313024,13
599622134376999680,16
599622134384686464,16
599622134392373120,16
599622134400059776,16
599622134407746560,16
599622134415433216,16
599622134423119872,18
599622134430806656,18
599622134438493312,18
599622134446180096,20
599622134453866752,18
599622134461553408,18
599622134469240192,18
599622134476926848,18
599622134484613504,20
599622134492300288,20
599622134499986944,20
599622134507673728,20
599622134515360384,20
599622134523047040,18
599622134530733824,20
599622134538420480,20
599622134546107136,20
599622134553793920,18
599622134561480576,18
599622134569167360,18
599622134576854016,18
599622134584540672,18
599622134592227456,16
599622134599914112,13
599622134607600768,6
599622134615287552,6
599622134622974208,27
599622134630660992,57
599622134638347648,64
599622134646034304,60
599622134653721088,57
599622134661407744,48
599622134669094400,32
599622134676781184,23
599622134684467840,25
599622134692154624,27
599622134699841280,25
599622134707527936,20
599622134715214720,20
599622134722901376,23
599622134730588032,23
599622134738274816,23
599622134745961472,20
599622134753648256,-4
599622134761334912,-108
599622134769021568,-242
599622134776708352,-187
599622134784395008,187
599622134792081664,730
599622134799768448,1016
599622134807455104,739
599622134815141888,261
599622134822828544,57
599622134830515200,4
599622134838201984,-71
599622134845888640,-71
599622134853575296,-39
599622134861262080,-60
599622134868948736,-69
599622134876635520,-48
599622134884322237,-46
599622134892008832,-50
599622134899695488,-41
599622134907382272,-34
599622134915068928,-32
599622134922755584,-27
599622134930442368,-20
599622134938129024,-18
599622134945815808,-13
599622134953502464,-11
599622134961189120,-9
599622134968875904,-4
599622134976562560,0
599622134984249216,2
599622134991936000,6
599622134999622656,11
599622135007309440,16
599622135014996096,23
599622135022682752,27
599622135030369536,32
599622135038056192,39
599622135045742848,43
599622135053429632,48
599622135061116288,48
599622135068803072,41
599622135076489728,30
599622135084176384,13
599622135091863168,0
599622135099549824,-11
599622135107236480,-18
599622135114923264,-23
599622135122609920,-25
599622135130296704,-23
599622135137983360,-23
599622135145670016,-20
599622135153356800,-18
599622135161043456,-16
599622135168730112,-16
599622135176416896,-11
599622135184103552,-9
599622135191790336,-9
599622135199476992,-6
599622135207163648,-6
599622135214850432,-6
599622135222537088,-4
599622135230223744,-4
599622135237910528,-2
599622135245597184,-2
599622135253283968,0
599622135260970624,2
599622135268657280,2
599622135276344064,6
599622135284030720,6
599622135291717376,9
599622135299404160,9
599622135307090816,11
599622135314777600,11
599622135322464256,11
599622135330150912,11
599622135337837696,11
599622135345524352,11
599622135353211008,13
599622135360897792,13
599622135368584448,13
599622135376271232,16
599622135383957888,13
599622135391644544,13
599622135399331328,16
599622135407017984,16
599622135414704640,16
599622135422391424,18
599622135430078080,16
599622135437764864,18
599622135445451616,18
599622135453138304,18
599622135460824960,18
599622135468511744,18
599622135476198400,18
599622135483885056,18
599622135491571840,18
599622135499258496,20
599622135506945280,20
599622135514631936,20
599622135522318592,20
599622135530005376,20
599622135537692032,20
599622135545378688,20
599622135553065472,23
599622135560752128,23
599622135568438912,23
599622135576125568,23
599622135583812224,23
599622135591499008,20
599622135599185664,20
599622135606872320,16
599622135614559104,11
599622135622245760,6
599622135629932544,13
599622135637619200,41
599622135645305856,64
599622135652992640,64
599622135660679296,60
599622135668365952,60
599622135676052736,46
599622135683739392,30
599622135691426176,25
599622135699112832,27
599622135706799488,27
599622135714486272,25
599622135722172928,23
599622135729859584,25
599622135737546368,25
599622135745233024,25
599622135752919808,25
599622135760606464,18
599622135768293120,-41
599622135775979904,-180
599622135783666560,-256
599622135791353216,-53
599622135799040000,455
599622135806726656,982
599622135814413440,1023
599622135822100096,556
599622135829786752,161
599622135837473536,55
599622135845160192,-20
599622135852846848,-87
599622135860533632,-64
599622135868220288,-55
599622135875907072,-76
599622135883593728,-69
599622135891280384,-55
599622135898967168,-55
599622135906653824,-50
599622135914340480,-41
599622135922027264,-36
599622135929713920,-34
599622135937400704,-30
599622135945087360,-25
599622135952774016,-20
599622135960460800,-13
599622135968147456,-9
599622135975834112,-6
599622135983520896,-2
599622135991207552,0
599622135998894336,6
599622136006580995,13
599622136014267648,18
599622136021954304,23
599622136029641088,30
599622136037327744,36
599622136045014400,41
599622136052701184,48
599622136060387840,53
599622136068074624,57
599622136075761280,57
599622136083447936,48
599622136091134720,36
599622136098821376,23
599622136106508032,9
599622136114194816,0
599622136121881472,-6
599622136129568256,-9
599622136137254912,-11
599622136144941568,-11
599622136152628352,-11
599622136160315008,-9
599622136168001664,-6
599622136175688448,-4
599622136183375104,-2
599622136191061888,0
599622136198748544,0
599622136206435200,2
599622136214121984,4
599622136221808640,4
599622136229495296,6
599622136237182080,9
599622136244868736,9
599622136252555520,11
599622136260242176,13
599622136267928832,13
599622136275615616,13
599622136283302272,16
599622136290988928,16
599622136298675712,13
599622136306362368,16
599622136314049152,20
599622136321735808,20
599622136329422464,18
599622136337109248,18
599622136344795904,23
599622136352482560,23
599622136360169344,20
599622136367856000,20
599622136375542784,23
599622136383229440,25
599622136390916096,25
599622136398602880,25
599622136406289536,25
599622136413976192,23
599622136421662976,23
599622136429349632,23
599622136437036416,23
599622136444723072,27
599622136452409728,30
599622136460096512,30
599622136467783168,30
599622136475469824,32
599622136483156608,32
599622136490843264,30
599622136498530048,27
599622136506216704,30
599622136513903360,30
599622136521590144,30
599622136529276800,30
599622136536963456,30
599622136544650240,27
599622136552336896,25
599622136560023680,23
599622136567710374,16
599622136575396992,11
599622136583083648,20
599622136590770432,48
599622136598457088,69
599622136606143744,69
599622136613830528,64
599622136621517184,57
599622136629203968,41
599622136636890624,30
599622136644577280,27
599622136652264064,27
599622136659950720,27
599622136667637376,25
599622136675324160,25
599622136683010816,25
599622136690697600,23
599622136698384256,23
599622136706070912,23
599622136713757696,16
599622136721444352,-46
599622136729131008,-184
599622136736817792,-238
599622136744504448,-4
599622136752191232,473
599622136759877888,873
599622136767564544,801
599622136775251328,358
599622136782937984,53
599622136790624640,-6
599622136798311424,-53
599622136805998080,-71
599622136813684864,-27
599622136821371520,-25
599622136829058176,-48
599622136836744960,-36
599622136844431616,-23
599622136852118272,-27
599622136859805056,-23
599622136867491712,-13
599622136875178496,-11
599622136882865152,-9
599622136890551808,-4
599622136898238592,0
599622136905925248,6
599622136913611904,11
599622136921298688,16
599622136928985344,20
599622136936672128,23
599622136944358784,30
599622136952045440,34
599622136959732224,39
599622136967418880,43
599622136975105536,48
599622136982792320,55
599622136990478976,64
599622136998165760,71
599622137005852416,76
599622137013539072,80
599622137021225856,78
599622137028912512,69
599622137036599168,53
599622137044285952,32
599622137051972608,13
599622137059659392,2
599622137067346048,-6
599622137075032704,-18
599622137082719488,-25
599622137090406144,-23
599622137098092800,-20
599622137105779584,-20
599622137113466240,-18
599622137121153024,-16
599622137128839757,-16
599622137136526464,-11
599622137144213120,-11
599622137151899904,-11
599622137159586560,-9
599622137167273216,-9
599622137174960000,-9
599622137182646656,-6
599622137190333440,-2
599622137198020096,-2
599622137205706752,-2
599622137213393536,2
599622137221080192,4
599622137228766848,4
599622137236453632,4
599622137244140288,6
599622137251827072,9
599622137259513728,11
599622137267200384,11
599622137274887168,11
599622137282573824,13
599622137290260480,13
599622137297947264,16
599622137305633920,16
599622137313320704,16
599622137321007360,18
599622137328694016,18
599622137336380800,18
599622137344067456,18
599622137351754112,16
599622137359440896,16
599622137367127552,18
599622137374814336,18
599622137382500992,18
599622137390187648,18
599622137397874432,18
599622137405561088,18
599622137413247744,20
599622137420934528,18
599622137428621184,18
599622137436307968,18
599622137443994624,18
599622137451681280,18
599622137459368064,18
599622137467054720,20
599622137474741376,20
599622137482428160,18
599622137490114816,16
599622137497801600,11
599622137505488256,9
599622137513174912,6
599622137520861696,13
599622137528548352,43
599622137536235008,64
599622137543921792,57
599622137551608448,55
599622137559295232,53
599622137566981888,36
599622137574668544,23
599622137582355328,18
599622137590041984,20
599622137597728640,23
599622137605415424,20
599622137613102080,18
599622137620788864,20
599622137628475520,20
599622137636162176,20
599622137643848960,18
599622137651535616,9
599622137659222272,-57
599622137666909056,-198
599622137674595712,-242
599622137682282496,0
599622137689969136,499
599622137697655808,936
599622137705342464,885
599622137713029248,427
599622137720715904,94
599622137728402560,18
599622137736089344,-46
599622137743776000,-83
599622137751462784,-48
599622137759149440,-46
599622137766836096,-67
599622137774522880,-55
599622137782209536,-43
599622137789896192,-46
599622137797582976,-41
599622137805269632,-34
599622137812956416,-30
599622137820643072,-27
599622137828329728,-23
599622137836016512,-18
599622137843703168,-13
599622137851389824,-9
599622137859076608,-4
599622137866763264,0
599622137874450048,4
599622137882136704,6
599622137889823360,11
599622137897510144,16
599622137905196800,20
599622137912883456,25
599622137920570240,32
599622137928256896,39
599622137935943680,43
599622137943630336,50
599622137951316992,55
599622137959003776,55
599622137966690432,55
599622137974377088,43
599622137982063872,27
599622137989750528,11
599622137997437312,2
599622138005123968,-6
599622138012810624,-16
599622138020497408,-18
599622138028184064,-20
599622138035870720,-18
599622138043557504,-18
599622138051244160,-13
599622138058930944,-13
599622138066617600,-11
599622138074304256,-11
599622138081991040,-9
599622138089677696,-9
599622138097364352,-9
599622138105051136,-6
599622138112737792,-4
599622138120424576,-4
599622138128111232,-4
599622138135797888,-4
599622138143484672,-2
599622138151171328,-2
599622138158857984,-2
599622138166544768,0
599622138174231424,2
599622138181918208,4
599622138189604864,2
599622138197291520,4
599622138204978304,4
599622138212664960,6
599622138220351616,6
599622138228038400,6
599622138235725056,6
599622138243411840,9
599622138251098515,9
599622138258785152,9
599622138266471808,9
599622138274158592,11
599622138281845248,11
599622138289531904,11
599622138297218688,11
599622138304905344,11
599622138312592128,11
599622138320278784,11
599622138327965440,13
599622138335652224,13
599622138343338880,13
599622138351025536,13
599622138358712320,13
599622138366398976,16
599622138374085760,16
599622138381772416,16
599622138389459072,16
599622138397145856,16
599622138404832512,16
599622138412519168,16
599622138420205952,18
599622138427892608,18
599622138435579392,18
599622138443266048,18
599622138450952704,16
599622138458639488,18
599622138466326144,18
599622138474012800,18
599622138481699584,18
599622138489386240,20
599622138497073024,20
599622138504759680,20
599622138512446336,20
599622138520133120,18
599622138527819776,13
599622138535506432,11
599622138543193216,6
599622138550879872,4
599622138558566656,23
599622138566253312,53
599622138573939968,62
599622138581626752,55
599622138589313408,55
599622138597000064,53
599622138604686848,34
599622138612373504,20
599622138620060288,20
599622138627746944,23
599622138635433600,23
599622138643120384,20
599622138650807040,20
599622138658493696,20
599622138666180480,20
599622138673867136,20
599622138681553920,20
599622138689240576,-4
599622138696927232,-106
599622138704614016,-244
599622138712300672,-210
599622138719987328,150
599622138727674112,725
599622138735360768,1083
599622138743047552,838
599622138750734208,332
599622138758420864,92
599622138766107648,20
599622138773794304,-71
599622138781480960,-87
599622138789167744,-57
599622138796854400,-73
599622138804541184,-83
599622138812227894,-64
599622138819914496,-62
599622138827601152,-62
599622138835287936,-55
599622138842974592,-48
599622138850661248,-43
599622138858348032,-39
599622138866034688,-32
599622138873721472,-30
599622138881408128,-25
599622138889094784,-20
599622138896781568,-18
599622138904468224,-13
599622138912154880,-9
599622138919841664,-4
599622138927528320,0
599622138935215104,4
599622138942901760,6
599622138950588416,13
599622138958275200,20
599622138965961856,25
599622138973648512,32
599622138981335296,41
599622138989021952,46
599622138996708736,48
599622139004395392,48
599622139012082048,41
599622139019768832,30
599622139027455488,18
599622139035142144,6
599622139042828928,-2
599622139050515584,-4
599622139058202368,-9
599622139065889024,-11
599622139073575680,-11
599622139081262464,-9
599622139088949120,-9
599622139096635776,-6
599622139104322560,-2
599622139112009216,0
599622139119696000,0
599622139127382656,2
599622139135069312,4
599622139142756096,4
599622139150442752,4
599622139158129408,6
599622139165816192,9
599622139173502848,9
599622139181189632,9
599622139188876288,9
599622139196562944,11
599622139204249728,13
599622139211936384,13
599622139219623040,13
599622139227309824,16
599622139234996480,16
599622139242683264,18
599622139250369920,18
599622139258056576,20
599622139265743360,20
599622139273430016,20
599622139281116672,20
599622139288803456,20
599622139296490112,18
599622139304176896,18
599622139311863552,23
599622139319550208,27
599622139327236992,25
599622139334923648,25
599622139342610304,27
599622139350297088,27
599622139357983744,27
599622139365670528,30
599622139373357273,30
599622139381043968,30
599622139388730624,30
599622139396417408,32
599622139404104064,32
599622139411790720,32
599622139419477504,32
599622139427164160,30
599622139434850944,30
599622139442537600,32
599622139450224256,32
599622139457911040,32
599622139465597696,30
599622139473284352,30
599622139480971136,32
599622139488657792,34
599622139496344576,32
599622139504031232,27
599622139511717888,25
599622139519404672,23
599622139527091328,18
599622139534777984,13
599622139542464768,30
599622139550151424,60
599622139557838208,71
599622139565524864,67
599622139573211520,64
599622139580898304,57
599622139588584960,41
599622139596271616,30
599622139603958400,27
599622139611645056,27
599622139619331840,27
599622139627018496,25
599622139634705152,25
599622139642391936,25
599622139650078592,23
599622139657765248,20
599622139665452032,20
599622139673138688,6
599622139680825472,-78
599622139688512128,-219
599622139696198784,-210
599622139703885568,101
599622139711572224,607
599622139719258880,926
599622139726945664,723
599622139734632320,258
599622139742319104,27
599622139750005760,-11
599622139757692416,-67
599622139765379200,-69
599622139773065856,-27
599622139780752512,-39
599622139788439296,-55
599622139796125952,-39
599622139803812736,-30
599622139811499392,-32
599622139819186048,-25
599622139826872832,-18
599622139834559488,-16
599622139842246144,-16
599622139849932928,-9
599622139857619584,-2
599622139865306368,0
599622139872993024,4
599622139880679680,11
599622139888366464,16
599622139896053120,18
599622139903739776,23
599622139911426560,30
599622139919113216,36
599622139926800000,41
599622139934486652,46
599622139942173312,53
599622139949859968,60
599622139957546752,64
599622139965233408,69
599622139972920064,73
599622139980606848,73
599622139988293504,64
599622139995980288,48
599622140003666944,27
599622140011353600,9
599622140019040384,-2
599622140026727040,-13
599622140034413696,-20
599622140042100480,-23
599622140049787136,-23
599622140057473920,-23
599622140065160576,-23
599622140072847232,-20
599622140080534016,-18
599622140088220672,-18
599622140095907328,-18
599622140103594112,-16
599622140111280768,-13
599622140118967552,-11
599622140126654208,-9
599622140134340864,-9
599622140142027648,-9
599622140149714304,-4
599622140157400960,-4
599622140165087744,-4
599622140172774400,-2
599622140180461184,0
599622140188147840,2
599622140195834496,2
599622140203521280,4
599622140211207936,4
599622140218894592,6
599622140226581376,6
599622140234268032,6
599622140241954816,9
599622140249641472,9
599622140257328128,11
599622140265014912,13
599622140272701568,13
599622140280388224,11
599622140288075008,11
599622140295761664,11
599622140303448448,13
599622140311135104,13
599622140318821760,11
599622140326508544,11
599622140334195200,13
599622140341881856,13
599622140349568640,16
599622140357255296,16
599622140364942080,16
599622140372628736,16
599622140380315392,16
599622140388002176,16
599622140395688832,16
599622140403375488,16
599622140411062272,16
599622140418748928,16
599622140426435712,11
599622140434122368,9
599622140441809024,6
599622140449495808,2
599622140457182464,0
599622140464869120,20
599622140472555904,50
599622140480242560,60
599622140487929344,53
599622140495616035,53
599622140503302656,43
599622140510989312,25
599622140518676096,16
599622140526362752,16
599622140534049408,20
599622140541736192,20
599622140549422848,18
599622140557109632,16
599622140564796288,16
599622140572482944,16
599622140580169728,16
599622140587856384,16
599622140595543040,-4
599622140603229824,-99
599622140610916480,-235
599622140618603264,-205
599622140626289920,124
599622140633976576,637
599622140641663360,952
599622140649350016,737
599622140657036672,272
599622140664723456,41
599622140672410112,-9
599622140680096896,-73
599622140687783552,-78
599622140695470208,-39
599622140703156992,-55
599622140710843648,-69
599622140718530304,-50
599622140726217088,-43
599622140733903744,-48
599622140741590528,-39
599622140749277184,-34
599622140756963840,-32
599622140764650624,-27
599622140772337280,-20
599622140780023936,-18
599622140787710720,-13
599622140795397376,-9
599622140803084160,-4
599622140810770816,-2
599622140818457472,2
599622140826144256,4
599622140833830912,9
599622140841517568,13
599622140849204352,16
599622140856891008,20
599622140864577792,27
599622140872264448,32
599622140879951104,39
599622140887637888,43
599622140895324544,48
599622140903011200,50
599622140910697984,46
599622140918384640,32
599622140926071424,16
599622140933758080,4
599622140941444736,-4
599622140949131520,-13
599622140956818176,-20
599622140964504832,-20
599622140972191616,-20
599622140979878272,-20
