599621853769082240,4486
599621853776774528,4090
599621853784466816,4460
599621853792159104,4590
599621853799851520,4388
599621853807543808,4451
599621853815236096,4529
599621853822928384,4444
599621853830620672,4423
599621853838312960,4453
599621853846005376,4412
599621853853697664,4368
599621853861389952,4361
599621853869082240,4342
599621853876774528,4310
599621853884466816,4280
599621853892159104,4247
599621853899851520,4220
599621853907543808,4190
599621853915236096,4164
599621853922928384,4143
599621853930620672,4102
599621853938312960,4065
599621853946005376,4053
599621853953697664,4030
599621853961389952,3996
599621853969082240,3963
599621853976774528,3917
599621853984466816,3864
599621853992159104,3827
599621853999851520,3794
599621854007543808,3755
599621854015236096,3727
599621854022928384,3695
599621854030620672,3649
599621854038312960,3610
599621854046005376,3584
599621854053697664,3554
599621854061389952,3515
599621854069082240,3443
599621854076774528,3300
599621854084466816,3177
599621854092159104,3298
599621854099851520,3716
599621854107543808,4139
599621854115236096,4086
599621854122928384,3524
599621854130620672,3090
599621854138312960,3057
599621854146005376,3066
599621854153697664,3029
599621854161389952,3055
599621854169082240,3034
599621854176774528,2967
599621854184466816,2942
599621854192159104,2932
599621854199851520,2902
599621854207543808,2868
599621854215236096,2838
599621854222928384,2810
599621854230620672,2784
599621854238312960,2757
599621854246005376,2729
599621854253697664,2706
599621854261389952,2680
599621854269082240,2650
599621854276774528,2623
599621854284466816,2602
599621854292159104,2583
599621854299851520,2556
599621854307543808,2526
599621854315236096,2509
599621854322928349,2493
599621854330615040,2470
599621854338301696,2452
599621854345988480,2436
599621854353675136,2412
599621854361361792,2387
599621854369048576,2364
599621854376735232,2341
599621854384422016,2301
599621854392108672,2246
599621854399795328,2186
599621854407482112,2142
599621854415168768,2105
599621854422855424,2052
599621854430542208,2003
599621854438228864,1971
599621854445915648,1943
599621854453602304,1918
599621854461288960,1895
599621854468975744,1879
599621854476662400,1860
599621854484349056,1837
599621854492035840,1816
599621854499722496,1800
599621854507409280,1781
599621854515095936,1758
599621854522782592,1742
599621854530469376,1726
599621854538156032,1705
599621854545842688,1684
599621854553529472,1673
599621854561216128,1659
599621854568902912,1638
599621854576589568,1620
599621854584276224,1606
599621854591963008,1587
599621854599649664,1569
599621854607336320,1555
599621854615023104,1541
599621854622709760,1523
599621854630396544,1502
599621854638083200,1486
599621854645769856,1474
599621854653456640,1458
599621854661143296,1439
599621854668829952,1423
599621854676516736,1409
599621854684203392,1393
599621854691890176,1377
599621854699576832,1363
599621854707263488,1352
599621854714950272,1335
599621854722636928,1317
599621854730323584,1301
599621854738010368,1291
599621854745697024,1278
599621854753383808,1261
599621854761070464,1248
599621854768757120,1236
599621854776443904,1222
599621854784130560,1208
599621854791817216,1197
599621854799504000,1185
599621854807190656,1174
599621854814877440,1160
599621854822564096,1148
599621854830250752,1139
599621854837937536,1125
599621854845624192,1111
599621854853310848,1102
599621854860997632,1093
599621854868684288,1081
599621854876371072,1070
599621854884057728,1060
599621854891744256,1051
599621854899430784,1040
599621854907117184,1023
599621854914803712,1016
599621854922490240,1009
599621854930176768,993
599621854937863168,973
599621854945549696,979
599621854953236224,998
599621854960922752,991
599621854968609152,973
599621854976295680,968
599621854983982208,956
599621854991668736,926
599621854999355136,903
599621855007041664,894
599621855014728192,889
599621855022414720,880
599621855030101120,869
599621855037787648,862
599621855045474176,855
599621855053160704,843
599621855060847104,836
599621855068533632,832
599621855076220160,811
599621855083906688,716
599621855091593088,587
599621855099279616,635
599621855106966144,996
599621855114652544,1472
599621855122339072,1629
599621855130025600,1227
599621855137712128,704
599621855145398528,582
599621855153085056,654
599621855160771584,647
599621855168458112,693
599621855176144512,746
599621855183831040,704
599621855191517568,686
599621855199204096,709
599621855206890496,702
599621855214577024,691
599621855222263552,695
599621855229950080,693
599621855237636480,684
599621855245323008,684
599621855253009536,684
599621855260696064,681
599621855268382464,679
599621855276068992,679
599621855283755520,677
599621855291442048,674
599621855299128448,674
599621855306814976,679
599621855314501504,679
599621855322187904,677
599621855329874432,679
599621855337560960,684
599621855345247488,686
599621855352933888,691
599621855360620416,693
599621855368306944,693
599621855375993472,691
599621855383679872,681
599621855391366400,663
599621855399052928,633
599621855406739456,596
599621855414425856,556
599621855422112384,526
599621855429798912,503
599621855437485440,483
599621855445171850,464
599621855452858368,459
599621855460544896,455
599621855468231296,450
599621855475917824,450
599621855483604352,450
599621855491290880,448
599621855498977280,446
599621855506663808,441
599621855514350336,441
599621855522036864,439
599621855529723264,434
599621855537409792,429
599621855545096320,432
599621855552782848,429
599621855560469248,427
599621855568155776,425
599621855575842304,425
599621855583528832,422
599621855591215232,420
599621855598901760,422
599621855606588288,420
599621855614274816,418
599621855621961216,416
599621855629647744,413
599621855637334272,409
599621855645020800,406
599621855652707200,402
599621855660393728,402
599621855668080256,402
599621855675766656,399
599621855683453184,395
599621855691139712,392
599621855698826240,390
599621855706512640,388
599621855714199168,383
599621855721885696,381
599621855729572224,381
599621855737258624,376
599621855744945152,374
599621855752631680,372
599621855760318208,369
599621855768004608,367
599621855775691136,367
599621855783377664,365
599621855791064192,362
599621855798750592,360
599621855806437120,358
599621855814123648,355
599621855821810176,353
599621855829496576,351
599621855837183104,348
599621855844869632,348
599621855852556032,346
599621855860242560,342
599621855867929088,342
599621855875615616,342
599621855883302016,337
599621855890988544,335
599621855898675072,335
599621855906361600,332
599621855914048000,328
599621855921734528,323
599621855929421056,316
599621855937107584,316
599621855944793984,332
599621855952480512,348
599621855960167040,348
599621855967853568,346
599621855975539968,348
599621855983226496,335
599621855990913024,312
599621855998599552,302
599621856006285968,300
599621856013972608,298
599621856021659264,298
599621856029346048,298
599621856037032704,295
599621856044719360,293
599621856052406144,291
599621856060092800,291
599621856067779584,284
599621856075466240,242
599621856083152896,131
599621856090839680,53
599621856098526336,221
599621856106212992,677
599621856113899776,1102
599621856121586432,1044
599621856129273216,526
599621856136959872,150
599621856144646528,152
599621856152333312,189
599621856160019968,194
599621856167706624,254
599621856175393408,261
599621856183080064,224
599621856190766848,238
599621856198453504,256
599621856206140160,244
599621856213826944,247
599621856221513600,258
599621856229200256,258
599621856236887040,258
599621856244573696,261
599621856252260480,263
599621856259947136,265
599621856267633792,272
599621856275320576,275
599621856283007232,275
599621856290693888,279
599621856298380672,286
599621856306067328,288
599621856313754112,295
599621856321440768,302
599621856329127424,312
599621856336814208,318
599621856344500864,328
599621856352187520,335
599621856359874304,339
599621856367560960,344
599621856375247744,344
599621856382934400,335
599621856390621056,318
599621856398307840,291
599621856405994496,254
599621856413681152,226
599621856421367936,201
599621856429054592,180
599621856436741376,166
599621856444428032,159
599621856452114688,157
599621856459801472,157
599621856467488128,159
599621856475174784,161
599621856482861568,164
599621856490548224,164
599621856498235008,166
599621856505921664,168
599621856513608320,168
599621856521295104,168
599621856528981760,171
599621856536668416,173
599621856544355200,173
599621856552041856,175
599621856559728640,180
599621856567415347,182
599621856575101568,184
599621856582787840,184
599621856590474112,184
599621856598160384,184
599621856605846656,182
599621856613533056,180
599621856621219328,182
599621856628905600,180
599621856636591872,180
599621856644278144,180
599621856651964416,182
599621856659650688,180
599621856667336960,180
599621856675023232,180
599621856682709632,177
599621856690395904,177
599621856698082176,175
599621856705768448,175
599621856713454720,177
599621856721140992,175
599621856728827264,171
599621856736513536,171
599621856744199808,175
599621856751886080,175
599621856759572480,173
599621856767258752,171
599621856774945024,173
599621856782631296,171
599621856790317568,168
599621856798003840,168
599621856805690112,166
599621856813376384,161
599621856821062656,157
599621856828749056,161
599621856836435328,182
599621856844121600,201
599621856851807872,203
599621856859494144,201
599621856867180416,198
599621856874866688,182
599621856882552960,161
599621856890239232,157
599621856897925632,161
599621856905611904,159
599621856913298176,157
599621856920984448,157
599621856928670720,157
599621856936356992,152
599621856944043264,154
599621856951729536,154
599621856959415808,147
599621856967102080,101
599621856974788480,-16
599621856982474752,-78
599621856990161024,138
599621856997847296,614
599621857005533568,984
599621857013219840,832
599621857020906112,284
599621857028592384,-27
599621857036278656,16
599621857043965056,50
599621857051651328,67
599621857059337600,145
599621857067023872,150
599621857074710144,110
599621857082396416,129
599621857090082688,150
599621857097768960,140
599621857105455232,143
599621857113141632,152
599621857120827904,152
599621857128514208,154
599621857136200832,161
599621857143887488,166
599621857151574272,164
599621857159260928,171
599621857166947584,177
599621857174634368,180
599621857182321024,187
599621857190007808,194
599621857197694464,196
599621857205381120,203
599621857213067904,214
599621857220754560,224
599621857228441216,235
599621857236128000,244
599621857243814656,254
599621857251501440,265
599621857259188096,270
599621857266874752,261
599621857274561536,238
599621857282248192,212
599621857289934848,182
599621857297621632,143
599621857305308288,110
599621857312995072,92
599621857320681728,78
599621857328368384,64
599621857336055168,60
599621857343741824,62
599621857351428480,62
599621857359115264,62
599621857366801920,67
599621857374488704,71
599621857382175360,71
599621857389862016,76
599621857397548800,83
599621857405235456,85
599621857412922112,83
599621857420608896,83
599621857428295552,90
599621857435982336,90
599621857443668992,85
599621857451355648,85
599621857459042432,90
599621857466729088,92
599621857474415744,90
599621857482102528,92
599621857489789184,97
599621857497475968,99
599621857505162624,99
599621857512849280,99
599621857520536064,99
599621857528222720,99
599621857535909376,104
599621857543596160,106
599621857551282816,104
599621857558969600,104
599621857566656256,101
599621857574342912,104
599621857582029696,108
599621857589716352,108
599621857597403008,106
599621857605089792,104
599621857612776448,106
599621857620463232,106
599621857628149888,104
599621857635836544,106
599621857643523328,110
599621857651209984,110
599621857658896640,104
599621857666583424,99
599621857674270080,101
599621857681956864,99
599621857689643591,94
599621857697330048,110
599621857705016448,136
599621857712702848,145
599621857720389376,145
599621857728075776,143
599621857735762176,134
599621857743448576,115
599621857751134976,101
599621857758821504,106
599621857766507904,113
599621857774194304,108
599621857781880704,99
599621857789567104,99
599621857797253632,104
599621857804940032,104
599621857812626432,104
599621857820312832,104
599621857827999232,85
599621857835685760,0
599621857843372160,-115
599621857851058560,-43
599621857858744960,344
599621857866431360,808
599621857874117888,910
599621857881804288,478
599621857889490688,-2
599621857897177088,-76
599621857904863488,0
599621857912549888,4
599621857920236416,69
599621857927922816,129
599621857935609216,94
599621857943295616,80
599621857950982016,108
599621857958668544,110
599621857966354944,101
599621857974041344,110
599621857981727744,117
599621857989414144,117
599621857997100672,122
599621858004787072,127
599621858012473472,131
599621858020159872,136
599621858027846272,140
599621858035532800,145
599621858043219200,150
599621858050905600,157
599621858058592000,166
599621858066278400,173
599621858073964928,180
599621858081651328,189
599621858089337728,198
599621858097024128,205
599621858104710528,214
599621858112397056,224
599621858120083456,228
599621858127769856,226
599621858135456256,217
599621858143142656,196
599621858150829184,161
599621858158515584,124
599621858166201984,92
599621858173888384,67
599621858181574784,48
599621858189261312,36
599621858196947712,34
599621858204634112,30
599621858212320512,27
599621858220006912,34
599621858227693440,39
599621858235379840,41
599621858243066240,41
599621858250752626,46
599621858258439168,48
599621858266125696,53
599621858273812352,55
599621858281498880,57
599621858289185408,60
599621858296871936,62
599621858304558592,67
599621858312245120,69
599621858319931648,71
599621858327618304,73
599621858335304832,78
599621858342991360,80
599621858350677888,80
599621858358364544,83
599621858366051072,85
599621858373737600,85
599621858381424256,85
599621858389110784,85
599621858396797312,87
599621858404483840,87
599621858412170496,87
599621858419857024,90
599621858427543552,87
599621858435230208,83
599621858442916736,85
599621858450603264,90
599621858458289792,90
599621858465976448,90
599621858473662976,85
599621858481349504,83
599621858489036160,76
599621858496722688,73
599621858504409216,85
599621858512095744,110
599621858519782400,124
599621858527468928,124
599621858535155456,122
599621858542842112,113
599621858550528640,97
599621858558215168,87
599621858565901696,87
599621858573588352,85
599621858581274880,85
599621858588961408,87
599621858596648064,87
599621858604334592,85
599621858612021120,87
599621858619707648,92
599621858627394304,92
599621858635080832,83
599621858642767360,18
599621858650454016,-101
599621858658140544,-97
599621858665827072,212
599621858673513600,686
599621858681200256,903
599621858688886784,584
599621858696573312,73
599621858704259968,-87
599621858711946496,-13
599621858719633024,-2
599621858727319552,46
599621858735006208,120
599621858742692736,94
599621858750379264,67
599621858758065920,97
599621858765752448,106
599621858773438976,97
599621858781125504,101
599621858788812160,108
599621858796498688,110
599621858804185216,115
599621858811871831,117
599621858819558400,120
599621858827244928,124
599621858834931584,129
599621858842618112,131
599621858850304640,136
599621858857991168,140
599621858865677824,147
599621858873364352,157
599621858881050880,161
599621858888737536,168
599621858896424064,180
599621858904110592,187
599621858911797120,194
599621858919483776,203
599621858927170304,210
599621858934856832,210
599621858942543488,201
599621858950230016,180
599621858957916544,145
599621858965603072,108
599621858973289728,78
599621858980976256,50
599621858988662784,30
599621858996349440,25
599621859004035968,18
599621859011722496,13
599621859019409024,16
599621859027095680,23
599621859034782208,20
599621859042468736,20
599621859050155392,27
599621859057841920,30
599621859065528448,30
599621859073214976,30
599621859080901632,34
599621859088588160,34
599621859096274688,34
599621859103961344,39
599621859111647872,41
599621859119334400,43
599621859127020928,43
599621859134707584,48
599621859142394112,53
599621859150080640,55
599621859157767296,55
599621859165453824,57
599621859173140352,57
599621859180826880,60
599621859188513536,60
599621859196200064,57
599621859203886592,60
599621859211573248,62
599621859219259776,62
599621859226946304,62
599621859234632832,62
599621859242319488,60
599621859250006016,60
599621859257692544,60
599621859265379200,57
599621859273065728,57
599621859280752256,57
599621859288438784,50
599621859296125440,46
599621859303811968,64
599621859311498496,90
599621859319185152,99
599621859326871680,97
599621859334558208,101
599621859342244736,92
599621859349931392,73
599621859357617920,67
599621859365304448,69
599621859372991040,69
599621859380677376,67
599621859388363776,71
599621859396050176,71
599621859403736704,69
599621859411423104,71
599621859419109504,69
599621859426795904,67
599621859434482304,53
599621859442168832,-20
599621859449855232,-143
599621859457541632,-124
599621859465228032,208
599621859472914432,716
599621859480600960,982
599621859488287360,667
599621859495973760,124
599621859503660160,-64
599621859511346560,-13
599621859519033088,-18
599621859526719488,16
599621859534405888,73
599621859542092288,48
599621859549778688,30
599621859557465216,53
599621859565151616,60
599621859572838016,55
599621859580524416,62
599621859588210816,69
599621859595897216,69
599621859603583744,73
599621859611270144,80
599621859618956544,83
599621859626642944,87
599621859634329344,90
599621859642015872,94
599621859649702272,101
599621859657388672,108
599621859665075072,115
599621859672761472,122
599621859680448000,129
599621859688134400,138
599621859695820800,150
599621859703507200,161
599621859711193600,171
599621859718880128,180
599621859726566528,189
599621859734252928,194
599621859741939328,184
599621859749625728,161
599621859757312256,131
599621859764998656,99
599621859772685056,67
599621859780371456,43
599621859788057856,30
599621859795744384,18
599621859803430784,13
599621859811117184,13
599621859818803584,16
599621859826489984,16
599621859834176512,18
599621859841862912,23
599621859849549312,27
599621859857235712,30
599621859864922112,32
599621859872608640,34
599621859880295040,34
599621859887981440,36
599621859895667840,39
599621859903354240,41
599621859911040768,43
599621859918727168,46
599621859926413568,46
599621859934100071,46
599621859941786752,48
599621859949473408,53
599621859957160192,50
599621859964846848,48
599621859972533504,50
599621859980220288,50
599621859987906944,50
599621859995593728,50
599621860003280384,46
599621860010967040,48
599621860018653824,50
599621860026340480,48
599621860034027136,46
599621860041713920,46
599621860049400576,43
599621860057087360,39
599621860064774016,36
599621860072460672,43
599621860080147456,69
599621860087834112,87
599621860095520768,87
599621860103207552,87
599621860110894208,85
599621860118580992,64
599621860126267648,50
599621860133954304,53
599621860141641088,53
599621860149327744,50
599621860157014400,50
599621860164701184,48
599621860172387840,50
599621860180074624,53
599621860187761280,53
599621860195447936,55
599621860203134720,50
599621860210821376,9
599621860218508032,-104
599621860226194816,-168
599621860233881472,34
599621860241568256,503
599621860249254912,887
599621860256941568,767
599621860264628352,240
599621860272315008,-78
599621860280001664,-53
599621860287688448,-30
599621860295375104,-20
599621860303061888,55
599621860310748544,62
599621860318435200,20
599621860326121984,39
599621860333808640,62
599621860341495296,55
599621860349182080,53
599621860356868736,62
599621860364555520,67
599621860372242176,71
599621860379928832,78
599621860387615616,80
599621860395302272,83
599621860402988928,87
599621860410675712,94
599621860418362368,101
599621860426049152,108
599621860433735808,115
599621860441422464,120
599621860449109248,129
599621860456795904,145
599621860464482560,157
599621860472169344,166
599621860479856000,177
599621860487542784,187
599621860495229450,194
599621860502915840,196
599621860510602240,189
599621860518288512,171
599621860525974912,131
599621860533661312,85
599621860541347584,53
599621860549033984,27
599621860556720384,9
599621860564406656,-4
599621860572093056,-13
599621860579779456,-11
599621860587465728,-9
599621860595152128,-9
599621860602838400,-6
599621860610524800,-4
599621860618211200,-2
599621860625897472,2
599621860633583872,9
599621860641270272,11
599621860648956544,11
599621860656642944,16
599621860664329344,18
599621860672015616,20
599621860679702016,20
599621860687388416,23
599621860695074688,30
599621860702761088,36
599621860710447488,36
599621860718133760,34
599621860725820160,34
599621860733506560,39
599621860741192832,43
599621860748879232,41
599621860756565632,39
599621860764251904,46
599621860771938304,48
599621860779624576,46
599621860787310976,48
599621860794997376,46
599621860802683648,39
599621860810370048,36
599621860818056448,39
599621860825742720,43
599621860833429120,64
599621860841115520,87
599621860848801792,87
599621860856488192,85
599621860864174592,85
599621860871860864,67
599621860879547264,46
599621860887233664,46
599621860894919936,50
599621860902606336,50
599621860910292736,48
599621860917979008,48
599621860925665408,53
599621860933351808,50
599621860941038080,48
599621860948724480,50
599621860956410752,46
599621860964097152,20
599621860971783552,-76
599621860979469824,-177
599621860987156224,-57
599621860994842624,369
599621861002528896,820
599621861010215296,829
599621861017901696,332
599621861025587968,-94
599621861033274368,-115
599621861040960768,-53
599621861048647040,-50
599621861056333402,30
599621861064020096,76
599621861071706752,30
599621861079393408,25
599621861087079936,55
599621861094766592,53
599621861102453248,46
599621861110139904,60
599621861117826560,67
599621861125513216,67
599621861133199744,69
599621861140886400,73
599621861148573056,76
599621861156259712,80
599621861163946368,87
599621861171633024,92
599621861179319552,99
599621861187006208,108
599621861194692864,115
599621861202379520,120
599621861210066176,131
599621861217752832,140
599621861225439360,152
599621861233126016,164
599621861240812672,173
599621861248499328,182
599621861256185984,184
599621861263872640,175
599621861271559168,154
599621861279245824,122
599621861286932480,85
599621861294619136,50
599621861302305792,23
599621861309992448,0
599621861317678976,-13
599621861325365632,-16
599621861333052288,-16
599621861340738944,-16
599621861348425600,-16
599621861356112256,-13
599621861363798784,-9
599621861371485440,-6
599621861379172096,-2
599621861386858752,2
599621861394545408,4
599621861402231936,6
599621861409918592,11
599621861417605248,13
599621861425291904,18
599621861432978560,20
599621861440665216,23
599621861448351744,23
599621861456038400,27
599621861463725056,32
599621861471411712,32
599621861479098368,32
599621861486785024,36
599621861494471552,36
599621861502158208,36
599621861509844864,36
599621861517531520,36
599621861525218176,36
599621861532904832,39
599621861540591360,41
599621861548278016,41
599621861555964672,41
599621861563651328,41
599621861571337984,36
599621861579024640,36
599621861586711168,36
599621861594397824,34
599621861602084480,41
599621861609771136,67
599621861617457694,80
599621861625143936,80
599621861632830208,83
599621861640516480,76
599621861648202752,57
599621861655889024,43
599621861663575424,46
599621861671261696,46
599621861678947968,46
599621861686634240,46
599621861694320512,46
599621861702006784,46
599621861709693056,48
599621861717379328,50
599621861725065600,50
599621861732752000,48
599621861740438272,16
599621861748124544,-87
599621861755810816,-171
599621861763497088,-6
599621861771183360,422
599621861778869632,792
599621861786555904,700
599621861794242176,201
599621861801928448,-124
599621861809614848,-97
599621861817301120,-50
599621861824987392,-30
599621861832673664,57
599621861840359936,80
599621861848046208,41
599621861855732480,50
599621861863418752,73
599621861871105024,67
599621861878791424,67
599621861886477696,78
599621861894163968,78
599621861901850240,80
599621861909536512,87
599621861917222784,92
599621861924909056,94
599621861932595328,99
599621861940281600,104
599621861947968000,108
599621861955654272,113
599621861963340544,120
599621861971026816,127
599621861978713088,136
599621861986399360,143
599621861994085632,150
599621862001771904,159
599621862009458176,168
599621862017144448,175
599621862024830848,182
599621862032517120,182
599621862040203392,177
599621862047889664,159
599621862055575936,127
599621862063262208,90
599621862070948480,57
599621862078634752,32
599621862086321024,13
599621862094007424,2
599621862101693696,-2
599621862109379968,-4
599621862117066240,-4
599621862124752512,-2
599621862132438784,0
599621862140125056,2
599621862147811328,6
599621862155497600,9
599621862163184000,11
599621862170870272,16
599621862178556555,18
599621862186243200,20
599621862193929856,23
599621862201616640,27
599621862209303296,30
599621862216989952,30
599621862224676736,34
599621862232363392,34
599621862240050176,34
599621862247736832,36
599621862255423488,39
599621862263110272,41
599621862270796928,41
599621862278483584,43
599621862286170368,46
599621862293857024,43
599621862301543808,43
599621862309230464,48
599621862316917120,48
599621862324603904,48
599621862332290560,50
599621862339977216,50
599621862347664000,53
599621862355350656,55
599621862363037440,55
599621862370724096,53
599621862378410752,50
599621862386097536,50
599621862393784192,50
599621862401470848,48
599621862409157632,46
599621862416844288,62
599621862424531072,87
599621862432217728,92
599621862439904384,92
599621862447591168,94
599621862455277824,83
599621862462964480,64
599621862470651264,55
599621862478337920,55
599621862486024704,55
599621862493711360,57
599621862501398016,57
599621862509084800,55
599621862516771456,55
599621862524458112,57
599621862532144896,60
599621862539831552,60
599621862547518336,55
599621862555204992,9
599621862562891648,-104
599621862570578432,-152
599621862578265088,67
599621862585951744,515
599621862593638528,841
599621862601325184,677
599621862609011968,168
599621862616698624,-101
599621862624385280,-55
599621862632072064,-27
599621862639758720,-11
599621862647445376,60
599621862655132160,64
599621862662818816,30
599621862670505600,48
599621862678192256,64
599621862685878912,53
599621862693565696,57
599621862701252352,69
599621862708939008,69
599621862716625792,69
599621862724312448,73
599621862731999232,78
599621862739685934,83
599621862747372160,87
599621862755058432,92
599621862762744704,94
599621862770430976,99
599621862778117248,104
599621862785803648,108
599621862793489920,115
599621862801176192,122
599621862808862464,129
599621862816548736,138
599621862824235008,147
599621862831921280,154
599621862839607552,157
599621862847293824,159
599621862854980224,157
599621862862666496,140
599621862870352768,115
599621862878039040,83
599621862885725312,53
599621862893411584,30
599621862901097856,13
599621862908784128,2
599621862916470400,-4
599621862924156672,-6
599621862931843072,-6
599621862939529344,-4
599621862947215616,-2
599621862954901888,0
599621862962588160,4
599621862970274432,9
599621862977960704,11
599621862985646976,13
599621862993333248,16
599621863001019648,18
599621863008705920,18
599621863016392192,20
599621863024078464,20
599621863031764736,23
599621863039451008,25
599621863047137280,27
599621863054823552,30
599621863062509824,30
599621863070196224,34
599621863077882496,34
599621863085568768,34
599621863093255040,36
599621863100941312,39
599621863108627584,39
599621863116313856,39
599621863124000128,41
599621863131686400,41
599621863139372672,43
599621863147059072,43
599621863154745344,43
599621863162431616,43
599621863170117888,43
599621863177804160,43
599621863185490432,46
599621863193176704,46
599621863200862976,46
599621863208549248,48
599621863216235648,48
599621863223921920,50
599621863231608192,48
599621863239294464,48
599621863246980736,50
599621863254667008,50
599621863262353280,50
599621863270039552,53
599621863277725824,53
599621863285412224,53
599621863293098496,53
599621863300784795,53
599621863308471424,53
599621863316158080,53
599621863323844864,46
599621863331531520,43
599621863339218176,57
599621863346904960,80
599621863354591616,90
599621863362278400,85
599621863369965056,90
599621863377651712,85
599621863385338496,67
599621863393025152,53
599621863400711808,53
599621863408398592,57
599621863416085248,55
599621863423772032,53
599621863431458688,55
599621863439145344,55
599621863446832128,55
599621863454518784,57
599621863462205440,57
599621863469892224,53
599621863477578880,6
599621863485265664,-106
599621863492952320,-161
599621863500638976,48
599621863508325760,508
599621863516012416,875
599621863523699072,744
599621863531385856,219
599621863539072512,-87
599621863546759296,-48
599621863554445952,-18
599621863562132608,-16
599621863569819392,43
599621863577506048,48
599621863585192704,16
599621863592879488,32
599621863600566144,46
599621863608252928,41
599621863615939584,46
599621863623626240,53
599621863631313024,55
599621863638999680,57
599621863646686336,62
599621863654373120,67
599621863662059776,69
599621863669746560,73
599621863677433216,76
599621863685119872,80
599621863692806656,87
599621863700493312,92
599621863708179968,97
599621863715866752,104
599621863723553408,110
599621863731240192,120
599621863738926848,127
599621863746613504,136
599621863754300288,143
599621863761986944,147
599621863769673600,152
599621863777360384,152
599621863785047040,145
599621863792733824,129
599621863800420480,101
599621863808107136,69
599621863815793920,43
599621863823480576,25
599621863831167232,11
599621863838854016,0
599621863846540672,-2
599621863854227456,-2
599621863861914174,-2
599621863869600768,-2
599621863877287424,2
599621863884974208,4
599621863892660864,6
599621863900347520,9
599621863908034304,11
599621863915720960,13
599621863923407744,16
599621863931094400,18
599621863938781056,20
599621863946467840,23
599621863954154496,25
599621863961841152,27
599621863969527936,27
599621863977214592,30
599621863984901376,32
599621863992588032,32
599621864000274688,34
599621864007961472,34
599621864015648128,36
599621864023334784,36
599621864031021568,36
599621864038708224,36
599621864046395008,39
599621864054081664,39
599621864061768320,39
599621864069455104,39
599621864077141760,41
599621864084828416,41
599621864092515200,41
599621864100201856,43
599621864107888640,43
599621864115575296,43
599621864123261952,43
599621864130948736,43
599621864138635392,43
599621864146322048,46
599621864154008832,48
599621864161695488,46
599621864169382272,46
599621864177068928,48
599621864184755584,48
599621864192442368,46
599621864200129024,48
599621864207815680,50
599621864215502464,48
599621864223189120,50
599621864230875904,50
599621864238562560,50
599621864246249216,53
599621864253936000,53
599621864261622656,53
599621864269309312,53
599621864276996096,53
599621864284682752,53
599621864292369536,53
599621864300056192,53
599621864307742848,53
599621864315429632,48
599621864323116288,43
599621864330802944,46
599621864338489728,67
599621864346176384,87
599621864353863168,90
599621864361549824,87
599621864369236480,90
599621864376923264,80
599621864384609920,62
599621864392296576,50
599621864399983360,53
599621864407670016,55
599621864415356800,55
599621864423043557,53
599621864430729984,53
599621864438416384,53
599621864446102784,53
599621864453789312,55
599621864461475712,53
599621864469162112,34
599621864476848512,-46
599621864484534912,-164
599621864492221440,-113
599621864499907840,254
599621864507594240,744
599621864515280640,912
599621864522967040,522
599621864530653568,18
599621864538339968,-94
599621864546026368,-32
599621864553712768,-36
599621864561399168,6
599621864569085696,55
599621864576772096,23
599621864584458496,13
599621864592144896,41
599621864599831296,41
599621864607517824,36
599621864615204224,48
599621864622890624,50
599621864630577024,50
599621864638263424,55
599621864645949824,62
599621864653636352,64
599621864661322752,71
599621864669009152,76
599621864676695552,80
599621864684381952,83
599621864692068480,90
599621864699754880,97
599621864707441280,101
599621864715127680,106
599621864722814080,115
599621864730500608,122
599621864738187008,131
599621864745873408,136
599621864753559808,140
599621864761246208,147
599621864768932736,152
599621864776619136,150
599621864784305536,138
599621864791991936,117
599621864799678336,90
599621864807364864,60
599621864815051264,34
599621864822737664,16
599621864830424064,2
599621864838110464,-6
599621864845796992,-9
599621864853483392,-11
599621864861169792,-9
599621864868856192,-9
599621864876542592,-4
599621864884229120,-2
599621864891915520,0
599621864899601920,4
599621864907288320,6
599621864914974720,9
599621864922661248,11
599621864930347648,16
599621864938034048,16
599621864945720448,18
599621864953406848,20
599621864961093376,20
599621864968779776,23
599621864976466176,25
599621864984152592,27
599621864991839104,30
599621864999525632,30
599621865007212288,30
599621865014898816,32
599621865022585344,32
599621865030271872,32
599621865037958528,32
599621865045645056,32
599621865053331584,32
599621865061018240,34
599621865068704768,34
599621865076391296,32
599621865084077824,32
599621865091764480,34
599621865099451008,36
599621865107137536,36
599621865114824192,39
599621865122510720,39
599621865130197248,36
599621865137883776,34
599621865145570432,36
599621865153256960,39
599621865160943488,39
599621865168630144,39
599621865176316672,41
599621865184003200,41
599621865191689728,41
599621865199376384,41
599621865207062912,43
599621865214749440,43
599621865222436096,43
599621865230122624,43
599621865237809152,46
599621865245495680,46
599621865253182336,46
599621865260868864,46
599621865268555392,46
599621865276242048,43
599621865283928576,41
599621865291615104,39
599621865299301632,50
599621865306988288,76
599621865314674816,85
599621865322361344,80
599621865330048000,83
599621865337734528,78
599621865345421056,57
599621865353107584,46
599621865360794240,46
599621865368480768,48
599621865376167296,48
599621865383853952,46
599621865391540480,46
599621865399227008,48
599621865406913536,46
599621865414600192,46
599621865422286720,48
599621865429973248,36
599621865437659904,-36
599621865445346432,-157
599621865453032960,-140
599621865460719488,182
599621865468406144,665
599621865476092672,878
599621865483779200,540
599621865491465856,13
599621865499152384,-143
599621865506838912,-62
599621865514525440,-50
599621865522212096,-4
599621865529898624,67
599621865537585152,41
599621865545271797,16
599621865552958464,46
599621865560645120,50
599621865568331904,41
599621865576018560,50
599621865583705216,60
599621865591392000,57
599621865599078656,62
599621865606765440,67
599621865614452096,69
599621865622138752,73
599621865629825536,78
599621865637512192,83
599621865645198848,87
599621865652885632,92
599621865660572288,99
599621865668259072,104
599621865675945728,110
599621865683632384,120
599621865691319168,127
599621865699005824,131
599621865706692480,138
599621865714379264,145
599621865722065920,150
599621865729752704,152
599621865737439360,147
599621865745126016,136
599621865752812800,115
599621865760499456,83
599621865768186112,55
599621865775872896,30
599621865783559552,9
599621865791246336,-4
599621865798932992,-11
599621865806619648,-13
599621865814306432,-16
599621865821993088,-18
599621865829679744,-13
599621865837366528,-9
599621865845053184,-6
599621865852739968,-4
599621865860426624,-2
599621865868113280,0
599621865875800064,4
599621865883486720,6
599621865891173376,9
599621865898860160,11
599621865906546816,11
599621865914233600,13
599621865921920256,18
599621865929606912,18
599621865937293696,23
599621865944980352,25
599621865952667008,25
599621865960353792,25
599621865968040448,25
599621865975727232,25
599621865983413888,27
599621865991100544,27
599621865998787328,30
599621866006473984,30
599621866014160640,32
599621866021847424,32
599621866029534080,32
599621866037220864,30
599621866044907520,32
599621866052594176,32
599621866060280960,32
599621866067967616,32
599621866075654272,34
599621866083341056,34
599621866091027712,32
599621866098714496,32
599621866106401176,34
599621866114087424,34
599621866121773696,34
599621866129459968,34
599621866137146240,36
599621866144832512,36
599621866152518912,36
599621866160205184,36
599621866167891456,36
599621866175577728,32
599621866183264000,27
599621866190950272,27
599621866198636544,41
599621866206322816,67
599621866214009088,76
599621866221695488,71
599621866229381760,73
599621866237068032,64
599621866244754304,46
599621866252440576,34
599621866260126848,36
599621866267813120,39
599621866275499392,36
599621866283185664,36
599621866290871936,36
599621866298558336,36
599621866306244608,36
599621866313930880,39
599621866321617152,41
599621866329303424,23
599621866336989696,-62
599621866344675968,-173
599621866352362240,-108
599621866360048512,258
599621866367734912,714
599621866375421184,836
599621866383107456,436
599621866390793728,-43
599621866398480000,-131
599621866406166272,-53
599621866413852544,-48
599621866421538816,4
599621866429225088,60
599621866436911488,27
599621866444597760,16
599621866452284032,43
599621866459970304,43
599621866467656576,39
599621866475342848,48
599621866483029120,53
599621866490715392,55
599621866498401664,60
599621866506087936,62
599621866513774336,64
599621866521460608,69
599621866529146880,73
599621866536833152,78
599621866544519424,83
599621866552205696,90
599621866559891968,94
599621866567578240,97
599621866575264512,104
599621866582950912,110
599621866590637184,117
599621866598323456,124
599621866606009728,131
599621866613696000,138
599621866621382272,143
599621866629068544,143
599621866636754816,138
599621866644441088,127
599621866652127488,99
599621866659813760,69
599621866667500037,39
599621866675186688,18
599621866682873344,0
599621866690560128,-11
599621866698246784,-16
599621866705933440,-18
599621866713620224,-20
599621866721306880,-20
599621866728993664,-16
599621866736680320,-13
599621866744366976,-11
599621866752053760,-9
599621866759740416,-4
599621866767427072,-2
599621866775113856,0
599621866782800512,2
599621866790487296,4
599621866798173952,6
599621866805860608,9
599621866813547392,11
599621866821234048,16
599621866828920704,18
599621866836607488,18
599621866844294144,20
599621866851980928,23
599621866859667584,25
599621866867354240,25
599621866875041024,25
599621866882727680,25
599621866890414336,25
599621866898101120,27
599621866905787776,30
599621866913474560,30
599621866921161216,30
599621866928847872,32
599621866936534656,32
599621866944221312,32
599621866951907968,32
599621866959594752,32
599621866967281408,32
599621866974968192,34
599621866982654848,34
599621866990341504,34
599621866998028288,34
599621867005714944,36
599621867013401600,36
599621867021088384,36
599621867028775040,36
599621867036461824,39
599621867044148480,36
599621867051835136,36
599621867059521920,36
599621867067208576,34
599621867074895232,30
599621867082582016,25
599621867090268672,27
599621867097955456,46
599621867105642112,69
599621867113328768,73
599621867121015552,71
599621867128702208,73
599621867136388864,62
599621867144075648,41
599621867151762304,32
599621867159449088,36
599621867167135744,36
599621867174822400,34
599621867182509184,36
599621867190195840,36
599621867197882496,36
599621867205569280,36
599621867213255936,39
599621867220942720,36
599621867228629416,0
599621867236316032,-106
599621867244002688,-182
599621867251689472,-16
599621867259376128,427
599621867267062784,838
599621867274749568,788
599621867282436224,281
599621867290123008,-92
599621867297809664,-85
599621867305496320,-39
599621867313183104,-39
599621867320869760,23
599621867328556416,36
599621867336243200,2
599621867343929856,13
599621867351616640,34
599621867359303296,30
599621867366989952,32
599621867374676736,41
599621867382363392,41
599621867390050048,41
599621867397736832,48
599621867405423488,53
599621867413110272,55
599621867420796928,60
599621867428483584,67
599621867436170368,71
599621867443857024,76
599621867451543680,83
599621867459230464,87
599621867466917120,92
599621867474603904,99
599621867482290560,106
599621867489977216,113
599621867497664000,122
599621867505350656,129
599621867513037312,136
599621867520724096,138
599621867528410752,138
599621867536097536,134
599621867543784192,117
599621867551470848,90
599621867559157632,60
599621867566844288,32
599621867574530944,9
599621867582217728,-6
599621867589904384,-16
599621867597591168,-23
599621867605277824,-23
599621867612964480,-23
599621867620651264,-20
599621867628337920,-18
599621867636024576,-16
599621867643711360,-13
599621867651398016,-9
599621867659084800,-6
599621867666771456,-4
599621867674458112,-2
599621867682144896,0
599621867689831552,2
599621867697518208,6
599621867705204992,9
599621867712891648,11
599621867720578432,13
599621867728265088,18
599621867735951744,18
599621867743638528,18
599621867751325184,20
599621867759011840,23
599621867766698624,23
599621867774385280,23
599621867782072064,27
599621867789758799,27
599621867797445120,27
599621867805131392,27
599621867812817664,30
599621867820503936,30
599621867828190208,30
599621867835876608,30
599621867843562880,32
599621867851249152,32
599621867858935424,32
599621867866621696,32
599621867874307968,32
599621867881994240,30
599621867889680512,30
599621867897366784,32
599621867905053184,34
599621867912739456,32
599621867920425728,34
599621867928112000,34
599621867935798272,34
599621867943484544,34
599621867951170816,32
599621867958857088,27
599621867966543360,25
599621867974229632,25
599621867981916032,39
599621867989602304,64
599621867997288576,76
599621868004974848,73
599621868012661120,71
599621868020347392,64
599621868028033664,43
599621868035719936,34
599621868043406208,34
599621868051092608,36
599621868058778880,36
599621868066465152,36
599621868074151424,34
599621868081837696,32
599621868089523968,34
599621868097210240,36
599621868104896512,36
599621868112582784,16
599621868120269184,-73
599621868127955456,-182
599621868135641728,-97
599621868143328000,288
599621868151014272,758
599621868158700544,864
599621868166386816,422
599621868174073088,-53
599621868181759360,-117
599621868189445632,-46
599621868197132032,-48
599621868204818304,9
599621868212504576,48
599621868220190848,6
599621868227877120,6
599621868235563392,34
599621868243249664,30
599621868250935936,27
599621868258622208,39
599621868266308608,43
599621868273994880,41
599621868281681152,48
599621868289367424,55
599621868297053696,57
599621868304739968,62
599621868312426240,67
599621868320112512,71
599621868327798784,76
599621868335485184,83
599621868343171456,87
599621868350857660,94
599621868358544256,104
599621868366230912,110
599621868373917696,117
599621868381604352,127
599621868389291008,136
599621868396977792,140
599621868404664448,147
599621868412351232,147
599621868420037888,143
599621868427724544,124
599621868435411328,97
599621868443097984,64
599621868450784640,36
599621868458471424,11
599621868466158080,-6
599621868473844864,-18
599621868481531520,-27
599621868489218176,-30
599621868496904960,-27
599621868504591616,-25
599621868512278272,-23
599621868519965056,-20
599621868527651712,-16
599621868535338496,-11
599621868543025152,-9
599621868550711808,-6
599621868558398592,-4
599621868566085248,-2
599621868573771904,-2
599621868581458688,2
599621868589145344,4
599621868596832128,6
599621868604518784,9
599621868612205440,11
599621868619892224,11
599621868627578880,13
599621868635265536,16
599621868642952320,13
599621868650638976,16
599621868658325760,20
599621868666012416,20
599621868673699072,20
599621868681385856,20
599621868689072512,23
599621868696759168,25
599621868704445952,25
599621868712132608,25
599621868719819392,25
599621868727506048,25
599621868735192704,25
599621868742879488,25
599621868750566144,30
599621868758252800,30
599621868765939584,27
599621868773626240,27
599621868781313024,27
599621868788999680,30
599621868796686336,30
599621868804373120,30
599621868812059776,30
599621868819746432,30
599621868827433216,30
599621868835119872,30
599621868842806656,30
599621868850493312,27
599621868858179968,25
599621868865866752,25
599621868873553408,23
599621868881240064,27
599621868888926848,48
599621868896613504,69
599621868904300288,69
599621868911987039,69
599621868919673344,64
599621868927359616,48
599621868935045888,30
599621868942732160,30
599621868950418432,32
599621868958104832,32
599621868965791104,27
599621868973477376,27
599621868981163648,30
599621868988849920,27
599621868996536192,30
599621869004222464,32
599621869011908736,25
599621869019595008,-25
599621869027281408,-143
599621869034967680,-184
599621869042653952,62
599621869050340224,538
599621869058026496,862
599621869065712768,654
599621869073399040,106
599621869081085312,-161
599621869088771584,-94
599621869096457856,-62
599621869104144256,-41
599621869111830528,36
599621869119516800,36
599621869127203072,0
599621869134889344,20
599621869142575616,36
599621869150261888,27
599621869157948160,34
599621869165634432,43
599621869173320832,43
599621869181007104,46
599621869188693376,55
599621869196379648,57
599621869204065920,60
599621869211752192,64
599621869219438464,71
599621869227124736,76
599621869234811008,80
599621869242497408,85
599621869250183680,92
599621869257869952,101
599621869265556224,108
599621869273242496,115
599621869280928768,124
599621869288615040,134
599621869296301312,138
599621869303987584,143
599621869311673856,147
599621869319360256,145
599621869327046528,134
599621869334732800,110
599621869342419072,78
599621869350105344,48
599621869357791616,23
599621869365477888,0
599621869373164160,-18
599621869380850432,-25
599621869388536832,-27
599621869396223104,-32
599621869403909376,-30
599621869411595648,-25
599621869419281920,-23
599621869426968192,-18
599621869434654464,-16
599621869442340736,-16
599621869450027008,-13
599621869457713408,-6
599621869465399680,-6
599621869473085900,-4
599621869480772608,-2
599621869488459264,2
599621869496146048,4
599621869503832704,6
599621869511519360,6
599621869519206144,9
599621869526892800,11
599621869534579584,13
599621869542266240,13
599621869549952896,16
599621869557639680,18
599621869565326336,18
599621869573012992,16
599621869580699776,16
599621869588386432,18
599621869596073216,18
599621869603759872,18
599621869611446528,20
599621869619133312,23
599621869626819968,23
599621869634506624,23
599621869642193408,23
599621869649880064,23
599621869657566848,23
599621869665253504,23
599621869672940160,25
599621869680626944,25
599621869688313600,25
599621869696000256,27
599621869703687040,27
599621869711373696,27
599621869719060480,27
599621869726747136,30
599621869734433792,30
599621869742120576,30
599621869749807232,30
599621869757493888,27
599621869765180672,27
599621869772867328,25
599621869780554112,20
599621869788240768,30
599621869795927424,53
599621869803614208,69
599621869811300864,67
599621869818987520,69
599621869826674304,64
599621869834360960,46
599621869842047744,30
599621869849734400,32
599621869857421056,34
599621869865107840,32
599621869872794496,34
599621869880481152,34
599621869888167936,32
599621869895854592,34
599621869903541376,34
599621869911228032,36
599621869918914688,27
599621869926601472,-23
599621869934288128,-138
599621869941974784,-173
599621869949661568,78
599621869957348224,547
599621869965035008,864
599621869972721664,656
599621869980408320,115
599621869988095104,-145
599621869995781760,-80
599621870003468416,-50
599621870011155200,-30
599621870018841856,41
599621870026528640,36
599621870034215279,4
599621870041901568,23
599621870049587840,36
599621870057274112,30
599621870064960384,34
599621870072646656,43
599621870080333056,43
599621870088019328,43
599621870095705600,50
599621870103391872,55
599621870111078144,55
599621870118764416,62
599621870126450688,67
599621870134136960,71
599621870141823232,76
599621870149509632,83
599621870157195904,90
599621870164882176,94
599621870172568448,101
599621870180254720,110
599621870187940992,120
599621870195627264,127
599621870203313536,134
599621870210999808,138
599621870218686080,143
599621870226372480,140
599621870234058752,131
599621870241745024,108
599621870249431296,76
599621870257117568,46
599621870264803840,20
599621870272490112,0
599621870280176384,-16
599621870287862656,-25
599621870295549056,-27
599621870303235328,-25
599621870310921600,-25
599621870318607872,-23
599621870326294144,-18
599621870333980416,-16
599621870341666688,-16
599621870349352960,-11
599621870357039232,-6
599621870364725632,-6
599621870372411904,-4
599621870380098176,-2
599621870387784448,0
599621870395470720,2
599621870403156992,4
599621870410843264,9
599621870418529536,11
599621870426215808,13
599621870433902080,13
599621870441588480,16
599621870449274752,18
599621870456961024,20
599621870464647296,20
599621870472333568,23
599621870480019840,25
599621870487706112,23
599621870495392384,25
599621870503078656,25
599621870510765056,25
599621870518451328,27
599621870526137600,27
599621870533823872,27
599621870541510144,27
599621870549196416,27
599621870556882688,27
599621870564568960,27
599621870572255232,30
599621870579941632,30
599621870587627904,30
599621870595314140,30
599621870603000832,30
599621870610687488,30
599621870618374272,30
599621870626060928,32
599621870633747584,34
599621870641434368,32
599621870649121024,30
599621870656807808,32
599621870664494464,32
599621870672181120,32
599621870679867904,32
599621870687554560,32
599621870695241216,32
599621870702928000,30
599621870710614656,25
599621870718301440,23
599621870725988096,34
599621870733674752,60
599621870741361536,71
599621870749048192,69
599621870756734848,71
599621870764421632,67
599621870772108288,48
599621870779795072,32
599621870787481728,32
599621870795168384,36
599621870802855168,34
599621870810541824,34
599621870818228480,34
599621870825915264,34
599621870833601920,34
599621870841288704,36
599621870848975360,36
599621870856662016,27
599621870864348800,-32
599621870872035456,-154
599621870879722112,-164
599621870887408896,124
599621870895095552,621
599621870902782336,915
599621870910468992,647
599621870918155648,99
599621870925842432,-122
599621870933529088,-57
599621870941215744,-48
599621870948902528,-23
599621870956589184,36
599621870964275968,20
599621870971962624,-2
599621870979649280,20
599621870987336064,30
599621870995022720,23
599621871002709376,32
599621871010396160,39
599621871018082816,39
599621871025769600,43
599621871033456256,48
599621871041142912,50
599621871048829696,55
599621871056516352,60
599621871064203008,64
599621871071889792,69
599621871079576448,73
599621871087263232,78
599621871094949888,85
599621871102636544,92
599621871110323328,99
599621871118009984,106
599621871125696640,115
599621871133383424,122
599621871141070080,129
599621871148756864,138
599621871156443523,140
599621871164129920,138
599621871171816320,129
599621871179502720,108
599621871187189248,78
599621871194875648,46
599621871202562048,20
599621871210248448,2
599621871217934848,-13
599621871225621376,-23
599621871233307776,-27
599621871240994176,-27
599621871248680576,-27
599621871256366976,-23
599621871264053504,-20
599621871271739904,-18
599621871279426304,-16
599621871287112704,-11
599621871294799104,-6
599621871302485632,-4
599621871310172032,-4
599621871317858432,-2
599621871325544832,0
599621871333231232,2
599621871340917760,4
599621871348604160,6
599621871356290560,9
599621871363976960,11
599621871371663360,13
599621871379349760,16
599621871387036288,16
599621871394722688,18
599621871402409088,20
599621871410095488,23
599621871417781888,20
599621871425468416,23
599621871433154816,23
599621871440841216,23
599621871448527616,25
599621871456214016,25
599621871463900544,25
599621871471586944,25
599621871479273344,25
599621871486959744,25
599621871494646144,27
599621871502332672,27
599621871510019072,27
599621871517705472,27
599621871525391872,30
599621871533078272,30
599621871540764800,30
599621871548451200,30
599621871556137600,32
599621871563824000,32
599621871571510400,32
599621871579196928,32
599621871586883328,32
599621871594569728,32
599621871602256128,32
599621871609942528,32
599621871617629056,32
599621871625315456,32
599621871633001856,32
599621871640688256,34
599621871648374656,34
599621871656061184,34
599621871663747584,36
599621871671433984,39
599621871679120384,36
599621871686806784,34
599621871694493312,34
599621871702179712,30
599621871709866112,25
599621871717552558,36
599621871725239040,62
599621871732925568,76
599621871740612224,73
599621871748298752,73
599621871755985280,71
599621871763671808,55
599621871771358464,34
599621871779044992,32
599621871786731520,36
599621871794418176,36
599621871802104704,32
599621871809791232,34
599621871817477760,36
599621871825164416,34
599621871832850944,36
599621871840537472,36
599621871848224128,30
599621871855910656,-27
599621871863597184,-152
599621871871283712,-175
599621871878970368,99
599621871886656896,603
599621871894343424,926
599621871902030080,686
599621871909716608,124
599621871917403136,-124
599621871925089664,-67
599621871932776320,-48
599621871940462848,-27
599621871948149376,32
599621871955836032,20
599621871963522560,-6
599621871971209088,16
599621871978895616,27
599621871986582272,20
599621871994268800,25
599621872001955328,34
599621872009641984,36
599621872017328512,39
599621872025015040,43
599621872032701568,48
599621872040388224,53
599621872048074752,57
599621872055761280,62
599621872063447936,67
599621872071134464,71
599621872078820992,78
599621872086507520,85
599621872094194176,92
599621872101880704,99
599621872109567232,106
599621872117253888,115
599621872124940416,122
599621872132626944,129
599621872140313472,136
599621872148000128,140
599621872155686656,140
599621872163373184,134
599621872171059840,115
599621872178746368,85
599621872186432896,53
599621872194119424,25
599621872201806080,4
599621872209492608,-11
599621872217179136,-20
599621872224865792,-27
599621872232552320,-27
599621872240238848,-27
599621872247925376,-25
599621872255612032,-23
599621872263298560,-20
599621872270985088,-16
599621872278671763,-13
599621872286358400,-9
599621872294045056,-6
599621872301731840,-4
599621872309418496,-4
599621872317105152,0
599621872324791936,2
599621872332478592,4
599621872340165376,6
599621872347852032,6
599621872355538688,9
599621872363225472,11
599621872370912128,13
599621872378598784,13
599621872386285568,13
599621872393972224,16
599621872401659008,18
599621872409345664,18
599621872417032320,18
599621872424719104,18
599621872432405760,23
599621872440092416,23
599621872447779200,23
599621872455465856,23
599621872463152640,23
599621872470839296,23
599621872478525952,25
599621872486212736,25
599621872493899392,25
599621872501586048,25
599621872509272832,27
599621872516959488,25
599621872524646272,25
599621872532332928,27
599621872540019584,25
599621872547706368,27
599621872555393024,30
599621872563079680,27
599621872570766464,27
599621872578453120,30
599621872586139904,30
599621872593826560,30
599621872601513216,30
599621872609200000,30
599621872616886656,30
599621872624573312,32
599621872632260096,30
599621872639946752,30
599621872647633536,30
599621872655320192,32
599621872663006848,32
599621872670693632,32
599621872678380288,30
599621872686066944,30
599621872693753728,27
599621872701440384,23
599621872709127168,32
599621872716813824,57
599621872724500480,71
599621872732187264,67
599621872739873920,67
599621872747560576,62
599621872755247360,43
599621872762934016,30
599621872770620800,30
599621872778307456,32
599621872785994112,30
599621872793680896,32
599621872801367552,32
599621872809054208,30
599621872816740992,30
599621872824427648,32
599621872832114432,34
599621872839801142,23
599621872847487360,-43
599621872855173632,-168
599621872862859904,-166
599621872870546176,154
599621872878232448,656
599621872885918848,903
599621872893605120,580
599621872901291392,20
599621872908977664,-161
599621872916663936,-78
599621872924350208,-67
599621872932036480,-30
599621872939722752,43
599621872947409024,23
599621872955095424,-2
599621872962781696,27
599621872970467968,34
599621872978154240,25
599621872985840512,34
599621872993526784,43
599621873001213056,41
599621873008899328,43
599621873016585600,50
599621873024271872,55
599621873031958272,60
599621873039644544,64
599621873047330816,71
599621873055017088,76
599621873062703360,78
599621873070389632,83
599621873078075904,90
599621873085762176,97
599621873093448448,104
599621873101134848,113
599621873108821120,122
599621873116507392,129
599621873124193664,134
599621873131879936,138
599621873139566208,143
599621873147252480,140
599621873154938752,127
599621873162625024,101
599621873170311424,71
599621873177997696,41
599621873185683968,13
599621873193370240,-6
599621873201056512,-20
599621873208742784,-30
599621873216429056,-36
599621873224115328,-36
599621873231801600,-34
599621873239487872,-32
599621873247174272,-30
599621873254860544,-27
599621873262546816,-25
599621873270233088,-20
599621873277919360,-18
599621873285605632,-16
599621873293291904,-13
599621873300978176,-11
599621873308664448,-9
599621873316350848,-4
599621873324037120,-2
599621873331723392,0
599621873339409664,2
599621873347095936,4
599621873354782208,6
599621873362468480,9
599621873370154752,9
599621873377841024,11
599621873385527424,11
599621873393213696,11
599621873400900003,11
599621873408586624,13
599621873416273280,16
599621873423960064,16
599621873431646720,16
599621873439333376,16
599621873447020160,18
599621873454706816,18
599621873462393600,16
599621873470080256,16
599621873477766912,16
599621873485453696,18
599621873493140352,18
599621873500827008,18
599621873508513792,18
599621873516200448,18
599621873523887232,20
599621873531573888,20
599621873539260544,20
599621873546947328,20
599621873554633984,23
599621873562320640,23
599621873570007424,23
599621873577694080,25
599621873585380864,25
599621873593067520,25
599621873600754176,25
599621873608440960,25
599621873616127616,25
599621873623814272,23
599621873631501056,23
599621873639187712,25
599621873646874496,25
599621873654561152,23
599621873662247808,18
599621873669934592,20
599621873677621248,39
599621873685307904,62
599621873692994688,64
599621873700681344,60
599621873708368128,62
599621873716054784,50
599621873723741440,32
599621873731428224,25
599621873739114880,27
599621873746801536,27
599621873754488320,25
599621873762174976,25
599621873769861760,27
599621873777548416,27
599621873785235072,27
599621873792921856,27
599621873800608512,25
599621873808295168,-9
599621873815981952,-120
599621873823668608,-201
599621873831355392,-18
599621873839042048,439
599621873846728704,841
599621873854415488,765
599621873862102144,231
599621873869788800,-145
599621873877475584,-122
599621873885162240,-67
599621873892849024,-60
599621873900535680,18
599621873908222336,41
599621873915909120,0
599621873923595776,9
599621873931282432,34
599621873938969216,27
599621873946655872,27
599621873954342656,39
599621873962029382,39
599621873969715840,43
599621873977402240,48
599621873985088512,50
599621873992774912,55
599621874000461312,57
599621874008147584,62
599621874015833984,69
599621874023520384,73
599621874031206656,78
599621874038893056,85
599621874046579456,92
599621874054265728,99
599621874061952128,108
599621874069638400,117
599621874077324800,124
599621874085011200,134
599621874092697472,138
599621874100383872,143
599621874108070272,143
599621874115756544,136
599621874123442944,115
599621874131129344,85
599621874138815616,50
599621874146502016,23
599621874154188416,0
599621874161874688,-16
599621874169561088,-27
599621874177247488,-34
599621874184933760,-36
599621874192620160,-34
599621874200306560,-32
599621874207992832,-30
599621874215679232,-27
599621874223365632,-25
599621874231051904,-20
599621874238738304,-18
599621874246424576,-16
599621874254110976,-13
599621874261797376,-11
599621874269483648,-9
599621874277170048,-4
599621874284856448,-2
599621874292542720,0
599621874300229120,2
599621874307915520,4
599621874315601792,6
599621874323288192,9
599621874330974592,11
599621874338660864,11
599621874346347264,13
599621874354033664,16
599621874361719936,16
599621874369406336,18
599621874377092736,18
599621874384779008,18
599621874392465408,18
599621874400151808,18
599621874407838080,18
599621874415524480,18
599621874423210752,20
599621874430897152,20
599621874438583552,20
599621874446269824,20
599621874453956224,20
599621874461642624,20
599621874469328896,23
599621874477015296,25
599621874484701696,25
599621874492387968,25
599621874500074368,25
599621874507760768,25
599621874515447040,27
599621874523133334,27
599621874530819968,27
599621874538506624,27
599621874546193280,25
599621874553879808,27
599621874561566464,27
599621874569253120,27
599621874576939776,27
599621874584626432,30
599621874592313088,30
599621874599999616,30
599621874607686272,30
599621874615372928,30
599621874623059584,30
599621874630746240,27
599621874638432896,23
599621874646119424,18
599621874653806080,27
599621874661492736,55
599621874669179392,69
599621874676866048,64
599621874684552704,64
599621874692239232,62
599621874699925888,46
599621874707612544,30
599621874715299200,27
599621874722985856,30
599621874730672512,30
599621874738359040,30
599621874746045696,30
599621874753732352,30
599621874761419008,30
599621874769105664,32
599621874776792320,30
599621874784478848,20
599621874792165504,-39
599621874799852160,-161
599621874807538816,-168
599621874815225472,124
599621874822912128,619
599621874830598656,908
599621874838285312,637
599621874845971968,90
599621874853658624,-134
599621874861345280,-69
599621874869031808,-57
599621874876718464,-32
599621874884405120,32
599621874892091776,16
599621874899778432,-9
599621874907465088,16
599621874915151616,23
599621874922838272,16
599621874930524928,25
599621874938211584,32
599621874945898240,32
599621874953584896,36
599621874961271424,41
599621874968958080,46
599621874976644736,48
599621874984331392,53
599621874992018048,60
599621874999704704,62
599621875007391232,67
599621875015077888,73
599621875022764544,80
599621875030451200,87
599621875038137856,97
599621875045824512,104
599621875053511040,113
599621875061197696,120
599621875068884352,127
599621875076571008,134
599621875084257626,138
599621875091944192,138
599621875099630720,127
599621875107317120,106
599621875115003648,78
599621875122690176,46
599621875130376704,18
599621875138063104,-4
599621875145749632,-25
599621875153436160,-32
599621875161122688,-36
599621875168809088,-39
599621875176495616,-36
599621875184182144,-32
599621875191868672,-30
599621875199555072,-27
599621875207241600,-25
599621875214928128,-20
599621875222614656,-18
599621875230301056,-16
599621875237987584,-13
599621875245674112,-11
599621875253360640,-9
599621875261047040,-6
599621875268733568,-2
599621875276420096,-2
599621875284106624,0
599621875291793024,4
599621875299479552,6
599621875307166080,6
599621875314852480,9
599621875322539008,11
599621875330225536,11
599621875337912064,13
599621875345598464,16
599621875353284992,16
599621875360971520,16
599621875368658048,16
599621875376344448,16
599621875384030976,18
599621875391717504,18
599621875399404032,18
599621875407090432,20
599621875414776960,20
599621875422463488,20
599621875430150016,20
599621875437836416,20
599621875445522944,20
599621875453209472,20
599621875460896000,23
599621875468582400,23
599621875476268928,20
599621875483955456,20
599621875491641984,23
599621875499328384,25
599621875507014912,25
599621875514701440,25
599621875522387840,25
599621875530074368,25
599621875537760896,25
599621875545447424,25
599621875553133824,27
599621875560820352,27
599621875568506880,27
599621875576193408,27
599621875583879808,30
599621875591566336,30
599621875599252864,27
599621875606939392,27
599621875614625792,30
599621875622312320,30
599621875629998848,30
599621875637685376,30
599621875645371748,30
599621875653058304,30
599621875660744832,27
599621875668431232,25
599621875676117760,20
599621875683804288,25
599621875691490816,46
599621875699177216,64
599621875706863744,67
599621875714550272,64
599621875722236800,64
599621875729923200,53
599621875737609728,34
599621875745296256,23
599621875752982784,27
599621875760669184,32
599621875768355712,30
599621875776042240,27
599621875783728768,27
599621875791415168,30
599621875799101696,30
599621875806788224,30
599621875814474752,25
599621875822161152,-16
599621875829847680,-134
599621875837534208,-201
599621875845220736,4
599621875852907136,485
599621875860593664,896
599621875868280192,790
599621875875966592,244
599621875883653120,-108
599621875891339648,-85
599621875899026176,-53
599621875906712576,-48
599621875914399104,11
599621875922085632,16
599621875929772160,-16
599621875937458560,0
599621875945145088,16
599621875952831616,9
599621875960518144,13
599621875968204544,23
599621875975891072,25
599621875983577600,27
599621875991264128,32
599621875998950528,36
599621876006637056,41
599621876014323584,46
599621876022010112,50
599621876029696512,55
599621876037383040,62
599621876045069568,67
599621876052755968,73
599621876060442496,78
599621876068129024,87
599621876075815552,94
599621876083501952,104
599621876091188480,113
599621876098875008,120
599621876106561536,127
599621876114247936,131
599621876121934464,134
599621876129620992,131
599621876137307520,115
599621876144993920,87
599621876152680448,55
599621876160366976,27
599621876168053504,2
599621876175739904,-16
599621876183426432,-27
599621876191112960,-34
599621876198799488,-36
599621876206485866,-36
599621876214172544,-34
599621876221859200,-30
599621876229545856,-27
599621876237232384,-25
599621876244919040,-23
599621876252605696,-20
599621876260292352,-18
599621876267979008,-13
599621876275665664,-11
599621876283352192,-9
599621876291038848,-9
599621876298725504,-6
599621876306412160,-4
599621876314098816,-2
599621876321785472,0
599621876329472000,2
599621876337158656,4
599621876344845312,4
599621876352531968,9
599621876360218624,11
599621876367905280,11
599621876375591808,13
599621876383278464,13
599621876390965120,13
599621876398651776,13
599621876406338432,13
599621876414025088,16
599621876421711616,18
599621876429398272,16
599621876437084928,18
599621876444771584,18
599621876452458240,20
599621876460144896,20
599621876467831424,18
599621876475518080,20
599621876483204736,23
599621876490891392,20
599621876498578048,20
599621876506264704,20
599621876513951232,20
599621876521637888,20
599621876529324544,20
599621876537011200,20
599621876544697856,20
599621876552384512,23
599621876560071040,23
599621876567757696,23
599621876575444352,27
599621876583131008,25
599621876590817664,23
599621876598504192,23
599621876606190848,25
599621876613877504,25
599621876621564160,27
599621876629250816,25
599621876636937472,27
599621876644624000,27
599621876652310656,27
599621876659997312,25
599621876667683968,27
599621876675370624,27
599621876683057280,27
599621876690743808,25
599621876698430464,25
599621876706117120,20
599621876713803776,18
599621876721490432,30
599621876729177088,55
599621876736863616,64
599621876744550272,60
599621876752236928,62
599621876759923584,57
599621876767610162,39
599621876775296512,25
599621876782982912,27
599621876790669184,27
599621876798355584,25
599621876806041984,25
599621876813728256,23
599621876821414656,23
599621876829101056,25
599621876836787328,25
599621876844473728,25
599621876852160128,11
599621876859846400,-62
599621876867532800,-184
599621876875219072,-159
599621876882905472,184
599621876890591872,693
599621876898278144,908
599621876905964544,538
599621876913650944,-6
599621876921337216,-154
599621876929023616,-73
599621876936710016,-71
599621876944396288,-27
599621876952082688,34
599621876959769088,6
599621876967455360,-11
599621876975141760,16
599621876982828160,20
599621876990514432,13
599621876998200832,25
599621877005887232,32
599621877013573504,30
599621877021259904,36
599621877028946304,41
599621877036632576,43
599621877044318976,46
599621877052005248,53
599621877059691648,57
599621877067378048,62
599621877075064320,69
599621877082750720,73
599621877090437120,80
599621877098123392,87
599621877105809792,97
599621877113496192,106
599621877121182464,113
599621877128868864,120
599621877136555264,129
599621877144241536,136
599621877151927936,140
599621877159614336,136
599621877167300608,124
599621877174987008,101
599621877182673408,69
599621877190359680,39
599621877198046080,11
599621877205732352,-11
599621877213418752,-27
599621877221105152,-36
599621877228791424,-39
599621877236477824,-41
599621877244164224,-41
599621877251850496,-39
599621877259536896,-36
599621877267223296,-36
599621877274909568,-32
599621877282595968,-25
599621877290282368,-25
599621877297968640,-23
599621877305655040,-20
599621877313341440,-16
599621877321027712,-13
599621877328714106,-11
599621877336400768,-9
599621877344087424,-6
599621877351774208,-4
599621877359460864,-2
599621877367147520,0
599621877374834304,0
599621877382520960,4
599621877390207744,4
599621877397894400,4
599621877405581056,6
599621877413267840,9
599621877420954496,9
599621877428641152,9
599621877436327936,9
599621877444014592,11
599621877451701376,9
599621877459388032,9
599621877467074688,13
599621877474761472,13
599621877482448128,11
599621877490134784,9
599621877497821568,13
599621877505508224,13
599621877513195008,13
599621877520881664,13
599621877528568320,13
599621877536255104,13
599621877543941760,13
599621877551628416,16
599621877559315200,18
599621877567001856,16
599621877574688640,16
599621877582375296,16
599621877590061952,20
599621877597748736,18
599621877605435392,18
599621877613122048,18
599621877620808832,20
599621877628495488,20
599621877636182272,20
599621877643868928,20
599621877651555584,18
599621877659242368,20
599621877666929024,20
599621877674615680,13
599621877682302464,9
599621877689989120,18
599621877697675904,39
599621877705362560,57
599621877713049216,57
599621877720736000,55
599621877728422656,53
599621877736109312,41
599621877743796096,23
599621877751482752,16
599621877759169536,20
599621877766856192,20
599621877774542848,20
599621877782229632,18
599621877789916288,20
599621877797602944,20
599621877805289728,20
599621877812976384,20
599621877820663168,18
599621877828349824,-18
599621877836036480,-134
599621877843723264,-208
599621877851409920,-16
599621877859096576,448
599621877866783360,834
599621877874470016,721
599621877882156800,182
599621877889843489,-161
599621877897530112,-124
599621877905216768,-76
599621877912903552,-62
599621877920590208,16
599621877928276864,36
599621877935963648,-4
599621877943650304,6
599621877951337088,30
599621877959023744,20
599621877966710400,20
599621877974397184,32
599621877982083840,34
599621877989770496,36
599621877997457280,41
599621878005143936,43
599621878012830720,48
599621878020517376,55
599621878028204032,57
599621878035890816,64
599621878043577472,71
599621878051264128,76
599621878058950912,83
599621878066637568,90
599621878074324352,97
599621878082011008,106
599621878089697664,115
599621878097384448,127
599621878105071104,134
599621878112757760,140
599621878120444544,143
599621878128131200,143
599621878135817984,136
599621878143504640,115
599621878151191296,83
599621878158878080,48
599621878166564736,18
599621878174251392,-9
599621878181938176,-27
599621878189624832,-36
599621878197311616,-43
599621878204998272,-48
599621878212684928,-43
599621878220371712,-41
599621878228058368,-39
599621878235745024,-36
599621878243431808,-32
599621878251118464,-30
599621878258805248,-27
599621878266491904,-25
599621878274178560,-23
599621878281865344,-20
599621878289552000,-16
599621878297238656,-13
599621878304925440,-11
599621878312612096,-6
599621878320298880,-6
599621878327985536,-4
599621878335672192,-2
599621878343358976,2
599621878351045632,2
599621878358732288,2
599621878366419072,4
599621878374105728,6
599621878381792512,6
599621878389479168,9
599621878397165824,11
599621878404852608,9
599621878412539264,9
599621878420225920,11
599621878427912704,13
599621878435599360,13
599621878443286144,11
599621878450972868,11
599621878458659200,13
599621878466345472,13
599621878474031744,16
599621878481718016,16
599621878489404288,13
599621878497090688,16
599621878504776960,16
599621878512463232,16
599621878520149504,16
599621878527835776,18
599621878535522048,16
599621878543208320,16
599621878550894592,18
599621878558580864,18
599621878566267264,18
599621878573953536,18
599621878581639808,20
599621878589326080,20
599621878597012352,20
599621878604698624,20
599621878612384896,23
599621878620071168,20
599621878627757440,20
599621878635443712,20
599621878643130112,13
599621878650816384,13
599621878658502656,30
599621878666188928,55
599621878673875200,60
599621878681561472,55
599621878689247744,55
599621878696934016,48
599621878704620288,30
599621878712306688,18
599621878719992960,20
599621878727679232,23
599621878735365504,23
599621878743051776,20
599621878750738048,23
599621878758424320,23
599621878766110592,23
599621878773796864,23
599621878781483264,23
599621878789169536,9
599621878796855808,-67
599621878804542080,-184
599621878812228352,-145
599621878819914624,201
599621878827600896,684
599621878835287168,880
599621878842973440,520
599621878850659712,-4
599621878858346112,-145
599621878866032384,-69
599621878873718656,-69
599621878881404928,-25
599621878889091200,32
599621878896777472,2
599621878904463744,-13
599621878912150016,13
599621878919836288,18
599621878927522688,11
599621878935208960,20
599621878942895232,27
599621878950581504,27
599621878958267776,32
599621878965954048,36
599621878973640320,39
599621878981326592,43
599621878989012864,48
599621878996699264,55
599621879004385536,60
599621879012071729,64
599621879019758336,71
599621879027444992,78
599621879035131776,85
599621879042818432,94
599621879050505088,104
599621879058191872,113
599621879065878528,122
599621879073565312,127
599621879081251968,134
599621879088938624,138
599621879096625408,136
599621879104312064,124
599621879111998720,99
599621879119685504,64
599621879127372160,34
599621879135058944,6
599621879142745600,-13
599621879150432256,-30
599621879158119040,-39
599621879165805696,-43
599621879173492352,-43
599621879181179136,-43
599621879188865792,-41
599621879196552576,-39
599621879204239232,-34
599621879211925888,-32
599621879219612672,-30
599621879227299328,-27
599621879234985984,-23
599621879242672768,-20
599621879250359424,-18
599621879258046208,-16
599621879265732864,-13
599621879273419520,-11
599621879281106304,-9
599621879288792960,-6
599621879296479616,-4
599621879304166400,-2
599621879311853056,0
599621879319539840,2
599621879327226496,4
599621879334913152,6
599621879342599936,6
599621879350286592,9
599621879357973248,9
599621879365660032,9
599621879373346688,9
599621879381033472,9
599621879388720128,11
599621879396406784,11
599621879404093568,11
599621879411780224,11
599621879419466880,13
599621879427153664,13
599621879434840320,13
599621879442527104,13
599621879450213760,16
599621879457900416,16
599621879465587200,16
599621879473273856,16
599621879480960512,16
599621879488647296,16
599621879496333952,16
599621879504020736,18
599621879511707392,18
599621879519394048,18
599621879527080832,18
599621879534767488,18
599621879542454144,20
599621879550140928,18
599621879557827584,18
599621879565514368,20
599621879573201108,20
599621879580887424,18
599621879588573696,20
599621879596259968,20
599621879603946240,20
599621879611632512,23
599621879619318912,23
599621879627005184,23
599621879634691456,23
599621879642377728,20
599621879650064000,18
599621879657750272,13
599621879665436544,16
599621879673122816,32
599621879680809088,55
599621879688495488,62
599621879696181760,57
599621879703868032,60
599621879711554304,53
599621879719240576,32
599621879726926848,18
599621879734613120,20
599621879742299392,23
599621879749985664,23
599621879757671936,23
599621879765358336,23
599621879773044608,23
599621879780730880,25
599621879788417152,25
599621879796103424,23
599621879803789696,6
599621879811475968,-80
599621879819162240,-194
599621879826848512,-127
599621879834534912,254
599621879842221184,746
599621879849907456,894
599621879857593728,476
599621879865280000,-25
599621879872966272,-122
599621879880652544,-57
599621879888338816,-62
599621879896025088,-13
599621879903711488,27
599621879911397760,-6
599621879919084032,-11
599621879926770304,13
599621879934456576,13
599621879942142848,9
599621879949829120,20
599621879957515392,25
599621879965201664,25
599621879972887936,30
599621879980574336,36
599621879988260608,36
599621879995946880,43
599621880003633152,48
599621880011319424,53
599621880019005696,57
599621880026691968,64
599621880034378240,71
599621880042064512,76
599621880049750912,85
599621880057437184,92
599621880065123456,101
599621880072809728,110
599621880080496000,120
599621880088182272,127
599621880095868544,134
599621880103554816,136
599621880111241088,136
599621880118927488,124
599621880126613760,101
599621880134299969,69
599621880141986688,36
599621880149673344,11
599621880157360128,-9
599621880165046784,-25
599621880172733440,-36
599621880180420224,-41
599621880188106880,-43
599621880195793664,-43
599621880203480320,-41
599621880211166976,-36
599621880218853760,-32
599621880226540416,-30
599621880234227072,-27
599621880241913856,-25
599621880249600512,-20
599621880257287296,-18
599621880264973952,-16
599621880272660608,-13
599621880280347392,-11
599621880288034048,-6
599621880295720704,-4
599621880303407488,-2
599621880311094144,-2
599621880318780928,2
599621880326467584,4
599621880334154240,4
599621880341841024,4
599621880349527680,6
599621880357214336,6
599621880364901120,6
599621880372587776,11
599621880380274560,11
599621880387961216,11
599621880395647872,11
599621880403334656,11
599621880411021312,13
599621880418707968,16
599621880426394752,16
599621880434081408,16
599621880441768192,13
599621880449454848,13
599621880457141504,16
599621880464828288,16
599621880472514944,16
599621880480201600,18
599621880487888384,18
599621880495575040,18
599621880503261824,18
599621880510948480,20
599621880518635136,20
599621880526321920,20
599621880534008576,20
599621880541695232,20
599621880549382016,23
599621880557068672,23
599621880564755456,23
599621880572442112,23
599621880580128768,23
599621880587815552,25
599621880595502208,25
599621880603188864,23
599621880610875648,25
599621880618562304,25
599621880626249088,27
599621880633935744,27
599621880641622400,27
599621880649309184,27
599621880656995840,27
599621880664682496,27
599621880672369280,27
599621880680055936,25
599621880687742720,25
599621880695429352,18
599621880703115648,16
599621880710801920,32
599621880718488192,57
599621880726174464,64
599621880733860736,57
599621880741547136,62
599621880749233408,55
599621880756919680,34
599621880764605952,20
599621880772292224,20
599621880779978496,23
599621880787664768,23
599621880795351040,23
599621880803037312,23
599621880810723712,23
599621880818409984,23
599621880826096256,25
599621880833782528,25
599621880841468800,9
599621880849155072,-60
599621880856841344,-184
599621880864527616,-168
599621880872213888,164
599621880879900160,667
599621880887586560,905
599621880895272832,561
599621880902959104,11
599621880910645376,-157
599621880918331648,-76
599621880926017920,-69
599621880933704192,-32
599621880941390464,30
599621880949076736,6
599621880956763136,-13
599621880964449408,11
599621880972135680,18
599621880979821952,11
599621880987508224,20
599621880995194496,25
599621881002880768,25
599621881010567040,30
599621881018253312,36
599621881025939712,41
599621881033625984,46
599621881041312256,50
599621881048998528,55
599621881056684800,60
599621881064371072,64
599621881072057344,71
599621881079743616,78
599621881087429888,85
599621881095116160,92
599621881102802560,104
599621881110488832,113
599621881118175104,122
599621881125861376,129
599621881133547648,136
599621881141233920,140
599621881148920192,138
599621881156606464,129
599621881164292736,108
599621881171979136,76
599621881179665408,41
599621881187351680,13
599621881195037952,-9
599621881202724224,-27
599621881210410496,-41
599621881218096768,-46
599621881225783040,-46
599621881233469312,-46
599621881241155712,-43
599621881248841984,-41
599621881256528213,-36
599621881264214528,-34
599621881271900800,-32
599621881279587072,-27
599621881287273344,-23
599621881294959616,-23
599621881302646016,-23
599621881310332288,-18
599621881318018560,-16
599621881325704832,-13
599621881333391104,-11
599621881341077376,-6
599621881348763648,-4
599621881356449920,-4
599621881364136192,-2
599621881371822592,0
599621881379508864,2
599621881387195136,4
599621881394881408,6
599621881402567680,6
599621881410253952,6
599621881417940224,6
599621881425626496,9
599621881433312768,9
599621881440999040,9
599621881448685440,9
599621881456371712,11
599621881464057984,11
599621881471744256,11
599621881479430528,11
599621881487116800,11
599621881494803072,11
599621881502489344,11
599621881510175616,9
599621881517862016,11
599621881525548288,13
599621881533234560,13
599621881540920832,11
599621881548607104,13
599621881556293376,16
599621881563979648,16
599621881571665920,16
599621881579352192,16
599621881587038592,18
599621881594724864,18
599621881602411136,16
599621881610097408,18
599621881617783680,18
599621881625469952,20
599621881633156224,20
599621881640842496,20
599621881648528768,20
599621881656215040,20
599621881663901440,20
599621881671587712,23
599621881679273984,23
599621881686960256,23
599621881694646528,23
599621881702332800,25
599621881710019072,23
599621881717705344,20
599621881725391616,20
599621881733078016,16
599621881740764288,13
599621881748450560,30
599621881756136832,55
599621881763823104,60
599621881771509376,55
599621881779195648,57
599621881786881920,50
599621881794568192,30
599621881802254592,18
599621881809940864,23
599621881817627074,25
599621881825313792,20
599621881833000448,18
599621881840687232,18
599621881848373888,20
599621881856060544,20
599621881863747328,23
599621881871433984,23
599621881879120768,2
599621881886807424,-90
599621881894494080,-205
599621881902180864,-120
599621881909867520,277
599621881917554176,753
599621881925240960,848
599621881932927616,395
599621881940614400,-94
599621881948301056,-157
599621881955987712,-76
599621881963674496,-78
599621881971361152,-18
599621881979047808,36
599621881986734592,-2
599621881994421248,-11
599621882002108032,18
599621882009794688,18
599621882017481344,11
599621882025168128,23
599621882032854784,30
599621882040541440,30
599621882048228224,34
599621882055914880,39
599621882063601664,41
599621882071288320,48
599621882078974976,53
599621882086661760,55
599621882094348416,62
599621882102035072,69
599621882109721856,76
599621882117408512,80
599621882125095296,87
599621882132781952,97
599621882140468608,106
599621882148155392,113
599621882155842048,122
599621882163528704,129
599621882171215488,136
599621882178902144,138
599621882186588928,136
599621882194275584,124
599621882201962240,97
599621882209649024,64
599621882217335680,32
599621882225022336,4
599621882232709120,-16
599621882240395776,-30
599621882248082560,-41
599621882255769216,-46
599621882263455872,-46
599621882271142656,-43
599621882278829312,-41
599621882286515968,-39
599621882294202752,-36
599621882301889408,-34
599621882309576192,-30
599621882317262848,-27
599621882324949504,-25
599621882332636288,-23
599621882340322944,-20
599621882348009600,-18
599621882355696384,-13
599621882363383040,-11
599621882371069824,-9
599621882378756453,-6
599621882386442752,-4
599621882394129024,-2
599621882401815296,0
599621882409501568,2
599621882417187840,2
599621882424874240,4
599621882432560512,4
599621882440246784,4
599621882447933056,4
599621882455619328,6
599621882463305600,6
599621882470991872,6
599621882478678144,9
599621882486364416,9
599621882494050816,9
599621882501737088,11
599621882509423360,11
599621882517109632,11
599621882524795904,11
599621882532482176,11
599621882540168448,11
599621882547854720,13
599621882555540992,13
599621882563227264,13
599621882570913664,16
599621882578599936,16
599621882586286208,18
599621882593972480,18
599621882601658752,18
599621882609345024,18
599621882617031296,18
599621882624717568,18
599621882632403840,18
599621882640090240,20
599621882647776512,18
599621882655462784,18
599621882663149056,20
599621882670835328,20
599621882678521600,20
599621882686207872,20
599621882693894144,23
599621882701580416,20
599621882709266816,20
599621882716953088,23
599621882724639360,20
599621882732325632,20
599621882740011904,23
599621882747698176,20
599621882755384448,13
599621882763070720,11
599621882770756992,25
599621882778443264,50
599621882786129664,62
599621882793815936,57
599621882801502208,57
599621882809188480,55
599621882816874752,39
599621882824561024,23
599621882832247296,20
599621882839933568,25
599621882847619840,23
599621882855306240,23
599621882862992512,23
599621882870678784,23
599621882878365056,25
599621882886051328,25
599621882893737600,25
599621882901423872,11
599621882909110144,-67
599621882916796416,-187
599621882924482816,-147
599621882932169088,203
599621882939855314,697
599621882947542016,896
599621882955228672,529
599621882962915328,4
599621882970601856,-134
599621882978288512,-64
599621882985975168,-67
599621882993661824,-25
599621883001348480,27
599621883009035136,-2
599621883016721664,-16
599621883024408320,11
599621883032094976,13
599621883039781632,6
599621883047468288,16
599621883055154944,23
599621883062841472,23
599621883070528128,30
599621883078214784,34
599621883085901440,36
599621883093588096,41
599621883101274752,48
599621883108961280,50
599621883116647936,55
599621883124334592,64
599621883132021248,69
599621883139707904,73
599621883147394560,83
599621883155081088,90
599621883162767744,99
599621883170454400,108
599621883178141056,117
599621883185827712,127
599621883193514368,134
599621883201200896,138
599621883208887552,138
599621883216574208,129
599621883224260864,106
599621883231947520,76
599621883239634176,43
599621883247320704,16
599621883255007360,-6
599621883262694016,-25
599621883270380672,-36
599621883278067328,-41
599621883285753984,-43
599621883293440512,-41
599621883301127168,-39
599621883308813824,-36
599621883316500480,-32
599621883324187136,-30
599621883331873664,-27
599621883339560320,-25
599621883347246976,-20
599621883354933632,-18
599621883362620288,-16
599621883370306944,-13
599621883377993472,-11
599621883385680128,-9
599621883393366784,-6
599621883401053440,-4
599621883408740096,-2
599621883416426752,0
599621883424113280,0
599621883431799936,2
599621883439486592,4
599621883447173248,4
599621883454859904,6
599621883462546560,9
599621883470233088,11
599621883477919744,11
599621883485606400,11
599621883493293056,13
599621883500979610,13
599621883508665984,13
599621883516352384,13
599621883524038656,16
599621883531725056,16
599621883539411456,13
599621883547097728,13
599621883554784128,13
599621883562470528,16
599621883570156800,16
599621883577843200,16
599621883585529600,16
599621883593215872,18
599621883600902272,18
599621883608588544,18
599621883616274944,20
599621883623961344,20
599621883631647616,18
599621883639334016,18
599621883647020416,20
599621883654706688,20
599621883662393088,20
599621883670079488,20
599621883677765760,20
599621883685452160,20
599621883693138560,20
599621883700824832,23
599621883708511232,23
599621883716197632,23
599621883723883904,20
599621883731570304,23
599621883739256704,23
599621883746942976,23
599621883754629376,23
599621883762315776,20
599621883770002048,16
599621883777688448,13
599621883785374720,27
599621883793061120,53
599621883800747520,62
599621883808433792,57
599621883816120192,60
599621883823806592,55
599621883831492864,34
599621883839179264,20
599621883846865664,20
599621883854551936,25
599621883862238336,23
599621883869924736,20
599621883877611008,20
599621883885297408,23
599621883892983808,23
599621883900670080,23
599621883908356480,23
599621883916042880,2
599621883923729152,-85
599621883931415552,-201
599621883939101824,-127
599621883946788224,265
599621883954474624,760
599621883962160896,899
599621883969847296,466
599621883977533696,-41
599621883985219968,-131
599621883992906368,-62
599621884000592768,-64
599621884008279040,-18
599621884015965440,23
599621884023651840,-11
599621884031338112,-16
599621884039024512,11
599621884046710912,9
599621884054397184,6
599621884062083554,16
599621884069769984,20
599621884077456384,20
599621884085142656,25
599621884092829056,30
599621884100515456,34
599621884108201728,39
599621884115888128,41
599621884123574528,46
599621884131260800,53
599621884138947200,57
599621884146633600,62
599621884154319872,71
599621884162006272,80
599621884169692544,90
599621884177378944,99
599621884185065344,108
599621884192751616,117
599621884200438016,127
599621884208124416,134
599621884215810688,138
599621884223497088,136
599621884231183488,124
599621884238869760,101
599621884246556160,69
599621884254242560,36
599621884261928832,9
599621884269615232,-13
599621884277301632,-30
599621884284987904,-41
599621884292674304,-46
599621884300360704,-46
599621884308046976,-43
599621884315733376,-41
599621884323419776,-39
599621884331106048,-36
599621884338792448,-32
599621884346478720,-30
599621884354165120,-27
599621884361851520,-23
599621884369537792,-20
599621884377224192,-20
599621884384910592,-18
599621884392596864,-13
599621884400283264,-11
599621884407969664,-9
599621884415655936,-6
599621884423342336,-4
599621884431028736,-2
599621884438715008,-2
599621884446401408,0
599621884454087808,2
599621884461774080,2
599621884469460480,2
599621884477146880,6
599621884484833152,6
599621884492519552,6
599621884500205952,6
599621884507892224,6
599621884515578624,6
599621884523264896,9
599621884530951296,9
599621884538637696,11
599621884546323968,9
599621884554010368,9
599621884561696768,9
599621884569383040,9
599621884577069440,11
599621884584755840,13
599621884592442112,13
599621884600128512,13
599621884607814912,13
599621884615501184,16
599621884623187506,13
599621884630874112,13
599621884638560768,13
599621884646247424,13
599621884653933952,16
599621884661620608,16
599621884669307264,16
599621884676993920,16
599621884684680576,16
599621884692367232,18
599621884700053760,20
599621884707740416,20
599621884715427072,18
599621884723113728,18
599621884730800384,18
599621884738487040,18
599621884746173568,16
599621884753860224,16
599621884761546880,16
599621884769233536,13
599621884776920192,9
599621884784606848,13
599621884792293376,39
599621884799980032,60
599621884807666688,55
599621884815353344,55
599621884823040000,55
599621884830726656,39
599621884838413184,18
599621884846099840,16
599621884853786496,20
599621884861473152,18
599621884869159808,18
599621884876846464,18
599621884884532992,18
599621884892219648,20
599621884899906304,20
599621884907592960,20
599621884915279616,16
599621884922966272,-27
599621884930652800,-143
599621884938339456,-210
599621884946026112,6
599621884953712768,487
599621884961399424,873
599621884969085952,730
599621884976772608,171
599621884984459264,-164
599621884992145920,-115
599621884999832576,-73
599621885007519232,-64
599621885015205760,11
599621885022892416,25
599621885030579072,-11
599621885038265728,2
599621885045952384,20
599621885053639040,13
599621885061325568,16
599621885069012224,27
599621885076698880,27
599621885084385536,30
599621885092072192,34
599621885099758848,39
599621885107445376,43
599621885115132032,48
599621885122818688,53
599621885130505344,57
599621885138192000,64
599621885145878656,71
599621885153565184,76
599621885161251840,83
599621885168938496,92
599621885176625152,101
599621885184311798,113
599621885191998464,122
599621885199685120,131
599621885207371904,138
599621885215058560,143
599621885222745216,143
599621885230432000,138
599621885238118656,120
599621885245805440,87
599621885253492096,50
599621885261178752,18
599621885268865536,-6
599621885276552192,-27
599621885284238848,-43
599621885291925632,-50
599621885299612288,-50
599621885307299072,-50
599621885314985728,-48
599621885322672384,-43
599621885330359168,-41
599621885338045824,-41
599621885345732480,-36
599621885353419264,-32
599621885361105920,-32
599621885368792704,-30
599621885376479360,-25
599621885384166016,-23
599621885391852800,-18
599621885399539456,-18
599621885407226112,-13
599621885414912896,-11
599621885422599552,-11
599621885430286336,-9
599621885437972992,-4
599621885445659648,-2
599621885453346432,0
599621885461033088,2
599621885468719744,0
599621885476406528,0
599621885484093184,4
599621885491779968,4
599621885499466624,4
599621885507153280,4
599621885514840064,6
599621885522526720,9
599621885530213376,6
599621885537900160,6
599621885545586816,9
599621885553273600,11
599621885560960256,11
599621885568646912,9
599621885576333696,9
599621885584020352,11
599621885591707008,11
599621885599393792,11
599621885607080448,11
599621885614767232,13
599621885622453888,13
599621885630140544,13
599621885637827328,13
599621885645513984,13
599621885653200640,16
599621885660887424,16
599621885668574080,16
599621885676260864,16
599621885683947520,16
599621885691634176,16
599621885699320960,18
599621885707007616,18
599621885714694272,18
599621885722381056,20
599621885730067712,18
599621885737754496,18
599621885745441177,20
599621885753127424,18
599621885760813696,16
599621885768499968,11
599621885776186240,11
599621885783872512,25
599621885791558912,50
599621885799245184,60
599621885806931456,55
599621885814617728,55
599621885822304000,46
599621885829990272,27
599621885837676544,16
599621885845362816,16
599621885853049088,18
599621885860735488,18
599621885868421760,16
599621885876108032,16
599621885883794304,18
599621885891480576,16
599621885899166848,18
599621885906853120,18
599621885914539392,2
599621885922225664,-80
599621885929911936,-201
599621885937598336,-145
599621885945284608,226
599621885952970880,711
599621885960657152,864
599621885968343424,459
599621885976029696,-60
599621885983715968,-173
599621885991402240,-87
599621885999088512,-83
599621886006774912,-30
599621886014461184,34
599621886022147456,4
599621886029833728,-11
599621886037520000,18
599621886045206272,20
599621886052892544,11
599621886060578816,23
599621886068265088,27
599621886075951488,27
599621886083637760,32
599621886091324032,39
599621886099010304,43
599621886106696576,46
599621886114382848,48
599621886122069120,55
599621886129755392,62
599621886137441664,67
599621886145127936,71
599621886152814336,78
599621886160500608,87
599621886168186880,94
599621886175873152,104
599621886183559424,113
599621886191245696,120
599621886198931968,127
599621886206618240,136
599621886214304512,140
599621886221990912,136
599621886229677184,124
599621886237363456,99
599621886245049728,67
599621886252736000,32
599621886260422272,4
599621886268108544,-18
599621886275794816,-36
599621886283481088,-48
599621886291167488,-50
599621886298853760,-53
599621886306540038,-50
599621886314226688,-46
599621886321913344,-43
599621886329600000,-43
599621886337286528,-39
599621886344973184,-34
599621886352659840,-32
599621886360346496,-32
599621886368033152,-27
599621886375719808,-25
599621886383406336,-23
599621886391092992,-18
599621886398779648,-16
599621886406466304,-13
599621886414152960,-11
599621886421839616,-9
599621886429526144,-6
599621886437212800,-4
599621886444899456,-4
599621886452586112,-2
599621886460272768,0
599621886467959424,2
599621886475645952,2
599621886483332608,2
599621886491019264,2
599621886498705920,4
599621886506392576,6
599621886514079232,6
599621886521765760,4
599621886529452416,6
599621886537139072,9
599621886544825728,6
599621886552512384,6
599621886560199040,9
599621886567885568,11
599621886575572224,9
599621886583258880,11
599621886590945536,11
599621886598632192,11
599621886606318848,11
599621886614005376,13
599621886621692032,13
599621886629378688,11
599621886637065344,11
599621886644752000,13
599621886652438656,16
599621886660125184,16
599621886667811840,13
599621886675498496,13
599621886683185152,16
599621886690871808,16
599621886698558336,16
599621886706244992,16
599621886713931648,16
599621886721618304,16
599621886729304960,16
599621886736991616,13
599621886744678144,11
599621886752364800,9
599621886760051456,25
599621886767738112,50
599621886775424768,55
599621886783111424,50
599621886790797952,53
599621886798484608,46
599621886806171264,25
599621886813857920,13
599621886821544576,18
599621886829231232,20
599621886836917760,18
599621886844604416,16
599621886852291072,16
599621886859977728,16
599621886867664334,16
599621886875350784,18
599621886883037184,18
599621886890723456,2
599621886898409856,-76
599621886906096256,-196
599621886913782528,-147
599621886921468928,212
599621886929155328,697
599621886936841600,878
599621886944528000,499
599621886952214400,-20
599621886959900672,-147
599621886967587072,-73
599621886975273344,-73
599621886982959744,-30
599621886990646144,25
599621886998332416,-4
599621887006018816,-18
599621887013705216,9
599621887021391488,11
599621887029077888,4
599621887036764288,16
599621887044450560,20
599621887052136960,20
599621887059823360,25
599621887067509632,32
599621887075196032,34
599621887082882432,36
599621887090568704,41
599621887098255104,48
599621887105941504,53
599621887113627776,57
599621887121314176,64
599621887129000576,71
599621887136686848,78
599621887144373248,90
599621887152059520,97
599621887159745920,106
599621887167432320,117
599621887175118592,127
599621887182804992,134
599621887190491392,136
599621887198177664,136
599621887205864064,127
599621887213550464,104
599621887221236736,71
599621887228923136,36
599621887236609536,6
599621887244295808,-16
599621887251982208,-32
599621887259668608,-41
599621887267354880,-48
599621887275041280,-53
599621887282727680,-48
599621887290413952,-46
599621887298100352,-46
599621887305786624,-41
599621887313473024,-36
599621887321159424,-34
599621887328845696,-32
599621887336532096,-27
599621887344218496,-25
599621887351904768,-23
599621887359591168,-23
599621887367277568,-20
599621887374963840,-16
599621887382650240,-13
599621887390336640,-11
599621887398022912,-9
599621887405709312,-6
599621887413395712,-4
599621887421081984,-2
599621887428768278,0
599621887436454528,2
599621887444140800,4
599621887451827072,4
599621887459513344,4
599621887467199616,6
599621887474886016,4
599621887482572288,4
599621887490258560,6
599621887497944832,6
599621887505631104,6
599621887513317376,9
599621887521003648,9
599621887528689920,9
599621887536376192,11
599621887544062592,11
599621887551748864,11
599621887559435136,11
599621887567121408,11
599621887574807680,13
599621887582493952,13
599621887590180224,13
599621887597866496,16
599621887605552768,16
599621887613239040,16
599621887620925440,18
599621887628611712,18
599621887636297984,16
599621887643984256,16
599621887651670528,18
599621887659356800,16
599621887667043072,16
599621887674729344,18
599621887682415616,20
599621887690102016,18
599621887697788288,20
599621887705474560,20
599621887713160832,20
599621887720847104,20
599621887728533376,20
599621887736219648,20
599621887743905920,18
599621887751592192,16
599621887759278592,11
599621887766964864,13
599621887774651136,32
599621887782337408,55
599621887790023680,60
599621887797709952,55
599621887805396224,55
599621887813082496,48
599621887820768768,27
599621887828455168,16
599621887836141440,18
599621887843827712,20
599621887851513984,18
599621887859200256,18
599621887866886528,18
599621887874572800,18
599621887882259072,20
599621887889945344,20
599621887897631616,20
599621887905318016,-4
599621887913004288,-99
599621887920690560,-205
599621887928376832,-108
599621887936063104,302
599621887943749376,790
599621887951435648,887
599621887959121920,427
599621887966808192,-57
599621887974494592,-124
599621887982180864,-62
599621887989867143,-69
599621887997553792,-18
599621888005240448,18
599621888012927232,-18
599621888020613888,-18
599621888028300544,6
599621888035987328,4
599621888043673984,2
599621888051360768,11
599621888059047424,16
599621888066734080,16
599621888074420864,20
599621888082107520,27
599621888089794176,30
599621888097480960,34
599621888105167616,39
599621888112854400,43
599621888120541056,50
599621888128227712,55
599621888135914496,62
599621888143601152,69
599621888151287808,76
599621888158974592,85
599621888166661248,94
599621888174348032,104
599621888182034688,113
599621888189721344,124
599621888197408128,129
599621888205094784,134
599621888212781440,134
599621888220468224,122
599621888228154880,99
599621888235841664,67
599621888243528320,34
599621888251214976,6
599621888258901760,-16
599621888266588416,-32
599621888274275072,-43
599621888281961856,-50
599621888289648512,-48
599621888297335296,-46
599621888305021952,-46
599621888312708608,-43
599621888320395392,-39
599621888328082048,-34
599621888335768704,-32
599621888343455488,-30
599621888351142144,-25
599621888358828928,-23
599621888366515584,-20
599621888374202240,-18
599621888381889024,-16
599621888389575680,-13
599621888397262336,-11
599621888404949120,-11
599621888412635776,-9
599621888420322560,-6
599621888428009216,-4
599621888435695872,-2
599621888443382656,0
599621888451069312,0
599621888458755968,2
599621888466442752,2
599621888474129408,2
599621888481816192,4
599621888489502848,6
599621888497189504,6
599621888504876288,6
599621888512562944,6
599621888520249600,6
599621888527936384,9
599621888535623040,9
599621888543309824,9
599621888550996522,9
599621888558682752,9
599621888566369024,11
599621888574055296,11
599621888581741568,13
599621888589427840,13
599621888597114240,13
599621888604800512,13
599621888612486784,13
599621888620173056,13
599621888627859328,13
599621888635545600,13
599621888643231872,13
599621888650918144,13
599621888658604416,16
599621888666290816,16
599621888673977088,16
599621888681663360,18
599621888689349632,18
599621888697035904,18
599621888704722176,16
599621888712408448,16
599621888720094720,18
599621888727780992,20
599621888735467264,20
599621888743153664,20
599621888750839936,23
599621888758526208,20
599621888766212480,20
599621888773898752,20
599621888781585024,18
599621888789271296,13
599621888796957568,11
599621888804643840,25
599621888812330240,53
599621888820016512,60
599621888827702784,55
599621888835389056,55
599621888843075328,50
599621888850761600,30
599621888858447872,16
599621888866134144,18
599621888873820416,23
599621888881506816,20
599621888889193088,18
599621888896879360,20
599621888904565632,20
599621888912251904,20
599621888919938176,20
599621888927624448,23
599621888935310720,6
599621888942996992,-69
599621888950683264,-194
599621888958369664,-159
599621888966055936,191
599621888973742208,695
599621888981428480,899
599621888989114752,520
599621888996801024,-23
599621889004487296,-164
599621889012173568,-80
599621889019859840,-80
599621889027546240,-36
599621889035232512,30
599621889042918784,4
599621889050605056,-16
599621889058291328,11
599621889065977600,16
599621889073663872,6
599621889081350144,16
599621889089036416,25
599621889096722816,23
599621889104409088,30
599621889112095383,36
599621889119782016,39
599621889127468672,43
599621889135155456,48
599621889142842112,53
599621889150528768,60
599621889158215552,64
599621889165902208,71
599621889173588992,76
599621889181275648,83
599621889188962304,92
599621889196649088,104
599621889204335744,115
599621889212022400,122
599621889219709184,127
599621889227395840,136
599621889235082624,143
599621889242769280,138
599621889250455936,129
599621889258142720,108
599621889265829376,76
599621889273516032,41
599621889281202816,11
599621889288889472,-16
599621889296576256,-34
599621889304262912,-46
599621889311949568,-53
599621889319636352,-55
599621889327323008,-50
599621889335009664,-48
599621889342696448,-48
599621889350383104,-43
599621889358069888,-39
599621889365756544,-36
599621889373443200,-34
599621889381129984,-30
599621889388816640,-27
599621889396503296,-27
599621889404190080,-23
599621889411876736,-20
599621889419563520,-18
599621889427250176,-16
599621889434936832,-11
599621889442623616,-6
599621889450310272,-4
599621889457996928,-4
599621889465683712,-2
599621889473370368,-2
599621889481057152,0
599621889488743808,2
599621889496430464,2
599621889504117248,2
599621889511803904,2
599621889519490560,4
599621889527177344,6
599621889534864000,4
599621889542550784,4
599621889550237440,6
599621889557924096,6
599621889565610880,6
599621889573297536,6
599621889580984192,6
599621889588670976,9
599621889596357632,9
599621889604044416,6
599621889611731072,6
599621889619417728,9
599621889627104512,9
599621889634791168,11
599621889642477824,11
599621889650164608,11
599621889657851264,11
599621889665538048,11
599621889673224762,13
599621889680910976,13
599621889688597248,11
599621889696283520,13
599621889703969792,16
599621889711656064,16
599621889719342464,13
599621889727028736,13
599621889734715008,13
599621889742401280,16
599621889750087552,13
599621889757773824,11
599621889765460096,6
599621889773146368,6
599621889780832640,27
599621889788519040,50
599621889796205312,53
599621889803891584,48
599621889811577856,53
599621889819264128,41
599621889826950400,20
599621889834636672,11
599621889842322944,13
599621889850009216,13
599621889857695488,13
599621889865381888,13
599621889873068160,16
599621889880754432,13
599621889888440704,13
599621889896126976,16
599621889903813248,16
599621889911499520,-6
599621889919185792,-99
599621889926872064,-210
599621889934558464,-113
599621889942244736,295
599621889949931008,758
599621889957617280,832
599621889965303552,369
599621889972989824,-106
599621889980676096,-161
599621889988362368,-83
599621889996048640,-85
599621890003735040,-18
599621890011421312,36
599621890019107584,-4
599621890026793856,-11
599621890034480128,18
599621890042166400,16
599621890049852672,11
599621890057538944,23
599621890065225216,27
599621890072911488,25
599621890080597888,30
599621890088284160,36
599621890095970432,41
599621890103656704,46
599621890111342976,48
599621890119029248,53
599621890126715520,60
599621890134401792,67
599621890142088064,71
599621890149774464,80
599621890157460736,87
599621890165147008,97
599621890172833280,106
599621890180519552,115
599621890188205824,124
599621890195892096,134
599621890203578368,140
599621890211264640,143
599621890218951040,138
599621890226637312,124
599621890234323623,97
599621890242009856,62
599621890249696128,30
599621890257382400,2
599621890265068672,-20
599621890272754944,-39
599621890280441344,-48
599621890288127616,-53
599621890295813888,-55
599621890303500160,-50
599621890311186432,-46
599621890318872704,-46
599621890326558976,-41
599621890334245248,-36
599621890341931520,-34
599621890349617920,-32
599621890357304192,-30
599621890364990464,-27
599621890372676736,-23
599621890380363008,-20
599621890388049280,-18
599621890395735552,-13
599621890403421824,-11
599621890411108096,-11
599621890418794368,-9
599621890426480768,-4
599621890434167040,-2
599621890441853312,0
599621890449539584,0
599621890457225856,2
599621890464912128,4
599621890472598400,4
599621890480284672,4
599621890487970944,6
599621890495657344,6
599621890503343616,6
599621890511029888,6
599621890518716160,6
599621890526402432,9
599621890534088704,9
599621890541774976,9
599621890549461248,11
599621890557147520,11
599621890564833920,11
599621890572520192,11
599621890580206464,13
599621890587892736,11
599621890595579008,13
599621890603265280,13
599621890610951552,13
599621890618637824,13
599621890626324096,13
599621890634010368,16
599621890641696768,16
599621890649383040,16
599621890657069312,16
599621890664755584,18
599621890672441856,18
599621890680128128,18
599621890687814400,18
599621890695500672,18
599621890703186944,20
599621890710873344,20
599621890718559616,20
599621890726245888,20
599621890733932160,18
599621890741618432,18
599621890749304704,16
599621890756990976,13
599621890764677248,11
599621890772363520,25
599621890780049920,50
599621890787736192,60
599621890795422484,55
599621890803109120,55
599621890810795776,50
599621890818482560,34
599621890826169216,18
599621890833855872,16
599621890841542656,18
599621890849229312,18
599621890856916096,18
599621890864602752,18
599621890872289408,20
599621890879976192,23
599621890887662848,23
599621890895349504,20
599621890903036288,4
599621890910722944,-76
599621890918409728,-194
599621890926096384,-143
599621890933783040,221
599621890941469824,721
599621890949156480,908
599621890956843136,522
599621890964529920,-2
599621890972216576,-131
599621890979903360,-62
599621890987590016,-69
599621890995276672,-27
599621891002963456,23
599621891010650112,-9
599621891018336768,-20
599621891026023552,6
599621891033710208,9
599621891041396992,4
599621891049083648,13
599621891056770304,18
599621891064457088,20
599621891072143744,23
599621891079830400,30
599621891087517184,32
599621891095203840,36
599621891102890624,41
599621891110577280,48
599621891118263936,53
599621891125950720,57
599621891133637376,64
599621891141324032,71
599621891149010816,78
599621891156697472,87
599621891164384256,97
599621891172070912,106
599621891179757568,115
599621891187444352,124
599621891195131008,131
599621891202817664,136
599621891210504448,136
599621891218191104,127
599621891225877888,106
599621891233564544,76
599621891241251200,41
599621891248937984,13
599621891256624640,-9
599621891264311296,-25
599621891271998080,-36
599621891279684736,-43
599621891287371520,-46
599621891295058176,-46
599621891302744832,-43
599621891310431616,-41
599621891318118272,-39
599621891325804928,-34
599621891333491712,-30
599621891341178368,-27
599621891348865152,-27
599621891356551867,-23
599621891364238080,-20
599621891371924352,-18
599621891379610624,-16
599621891387296896,-13
599621891394983168,-11
599621891402669568,-9
599621891410355840,-6
599621891418042112,-4
599621891425728384,-2
599621891433414656,0
599621891441100928,2
599621891448787200,2
599621891456473472,2
599621891464159744,4
599621891471846144,6
599621891479532416,6
599621891487218688,6
599621891494904960,6
599621891502591232,9
599621891510277504,11
599621891517963776,11
599621891525650048,11
599621891533336320,11
599621891541022592,13
599621891548708992,11
599621891556395264,11
599621891564081536,11
599621891571767808,13
599621891579454080,13
599621891587140352,11
599621891594826624,13
599621891602512896,13
599621891610199168,13
599621891617885568,16
599621891625571840,16
599621891633258112,16
599621891640944384,16
599621891648630656,16
599621891656316928,16
599621891664003200,16
599621891671689472,18
599621891679375744,18
599621891687062144,18
599621891694748416,18
599621891702434688,18
599621891710120960,18
599621891717807232,20
599621891725493504,20
599621891733179776,20
599621891740866048,23
599621891748552320,20
599621891756238592,20
599621891763924992,20
599621891771611264,20
599621891779297536,18
599621891786983808,13
599621891794670080,11
599621891802356352,18
599621891810042624,41
599621891817728896,60
599621891825415168,57
599621891833101568,55
599621891840787840,57
599621891848474112,39
599621891856160384,20
599621891863846656,18
599621891871532928,20
599621891879219200,20
599621891886905472,20
599621891894591744,20
599621891902278144,18
599621891909964416,20
599621891917650728,23
599621891925337216,23
599621891933023744,16
599621891940710144,-39
599621891948396672,-161
599621891956083200,-198
599621891963769728,62
599621891971456128,563
599621891979142656,915
599621891986829184,704
599621891994515712,136
599621892002202112,-147
599621892009888640,-92
599621892017575168,-69
599621892025261696,-53
599621892032948096,11
599621892040634624,6
599621892048321152,-23
599621892056007680,-2
599621892063694080,9
599621892071380608,2
599621892079067136,9
599621892086753664,16
599621892094440064,18
599621892102126592,20
599621892109813120,27
599621892117499648,30
599621892125186048,34
599621892132872576,41
599621892140559104,46
599621892148245504,50
599621892155932032,55
599621892163618560,62
599621892171305088,69
599621892178991488,76
599621892186678016,83
599621892194364544,94
599621892202051072,104
599621892209737472,113
599621892217424000,122
599621892225110528,131
599621892232797056,138
599621892240483456,140
599621892248169984,136
599621892255856512,117
599621892263543040,90
599621892271229440,55
599621892278915968,23
599621892286602496,-2
599621892294289024,-23
599621892301975424,-39
599621892309661952,-48
599621892317348480,-50
599621892325035008,-50
599621892332721408,-48
599621892340407936,-46
599621892348094464,-43
599621892355780864,-39
599621892363467392,-34
599621892371153920,-32
599621892378840448,-30
599621892386526848,-27
599621892394213376,-25
599621892401899904,-20
599621892409586432,-18
599621892417272832,-16
599621892424959360,-13
599621892432645888,-13
599621892440332416,-9
599621892448018816,-6
599621892455705344,-4
599621892463391872,-2
599621892471078400,0
599621892478764850,0
599621892486451328,0
599621892494137856,2
599621892501824256,4
599621892509510784,4
599621892517197312,4
599621892524883840,6
599621892532570240,6
599621892540256768,6
599621892547943296,6
599621892555629824,6
599621892563316224,6
599621892571002752,6
599621892578689280,9
599621892586375808,11
599621892594062208,11
599621892601748736,11
599621892609435264,9
599621892617121792,9
599621892624808192,11
599621892632494720,11
599621892640181248,11
599621892647867776,13
599621892655554176,13
599621892663240704,13
599621892670927232,11
599621892678613760,13
599621892686300160,16
599621892693986688,16
599621892701673216,16
599621892709359616,13
599621892717046144,16
599621892724732672,16
599621892732419200,18
599621892740105600,18
599621892747792128,18
599621892755478656,20
599621892763165184,18
599621892770851584,18
599621892778538112,18
599621892786224640,16
599621892793911168,13
599621892801597568,11
599621892809284096,23
599621892816970624,48
599621892824657152,57
599621892832343552,55
599621892840030080,55
599621892847716608,48
599621892855403136,30
599621892863089536,16
599621892870776064,16
599621892878462592,18
599621892886148992,18
599621892893835520,18
599621892901522048,16
599621892909208576,16
599621892916894976,16
599621892924581504,18
599621892932268032,20
599621892939954560,9
599621892947640960,-57
599621892955327488,-182
599621892963014016,-177
599621892970700544,136
599621892978386944,633
599621892986073472,880
599621892993760000,559
599621893001446528,4
599621893009132928,-182
599621893016819456,-94
599621893024505984,-83
599621893032192512,-46
599621893039878968,34
599621893047565184,13
599621893055251456,-16
599621893062937728,13
599621893070624000,23
599621893078310272,11
599621893085996672,18
599621893093682944,27
599621893101369216,27
599621893109055488,30
599621893116741760,36
599621893124428032,41
599621893132114304,46
599621893139800576,50
599621893147486848,55
599621893155173248,60
599621893162859520,64
599621893170545792,71
599621893178232064,78
599621893185918336,85
599621893193604608,94
599621893201290880,104
599621893208977152,115
599621893216663424,124
599621893224349696,134
599621893232036096,140
599621893239722368,145
599621893247408640,145
599621893255094912,136
599621893262781184,115
599621893270467456,80
599621893278153728,46
599621893285840000,16
599621893293526272,-9
599621893301212672,-27
599621893308898944,-41
599621893316585216,-53
599621893324271488,-55
599621893331957760,-50
599621893339644032,-48
599621893347330304,-46
599621893355016576,-41
599621893362702848,-39
599621893370389248,-36
599621893378075520,-34
599621893385761792,-32
599621893393448064,-30
599621893401134336,-27
599621893408820608,-25
599621893416506880,-23
599621893424193152,-18
599621893431879424,-16
599621893439565696,-11
599621893447252096,-11
599621893454938368,-9
599621893462624640,-6
599621893470310912,-4
599621893477997184,-4
599621893485683456,-2
599621893493369728,0
599621893501056000,0
599621893508742272,2
599621893516428672,4
599621893524114944,4
599621893531801216,2
599621893539487488,2
599621893547173760,4
599621893554860032,4
599621893562546304,4
599621893570232576,6
599621893577918848,6
599621893585605248,4
599621893593291520,6
599621893600977829,9
599621893608664448,9
599621893616351104,6
599621893624037888,9
599621893631724544,9
599621893639411200,9
599621893647097984,9
599621893654784640,11
599621893662471424,11
599621893670158080,11
599621893677844736,13
599621893685531520,11
599621893693218176,11
599621893700904832,13
599621893708591616,13
599621893716278272,13
599621893723965056,13
599621893731651712,16
599621893739338368,16
599621893747025152,13
599621893754711808,16
599621893762398464,13
599621893770085248,11
599621893777771904,9
599621893785458688,9
599621893793145344,27
599621893800832000,50
599621893808518784,55
599621893816205440,50
599621893823892096,50
599621893831578880,41
599621893839265536,23
599621893846952320,13
599621893854638976,16
599621893862325632,18
599621893870012416,16
599621893877699072,16
599621893885385728,16
599621893893072512,16
599621893900759168,16
599621893908445952,16
599621893916132608,18
599621893923819264,-4
599621893931506048,-99
599621893939192704,-205
599621893946879360,-101
599621893954566144,305
599621893962252800,767
599621893969939584,852
599621893977626240,399
599621893985312896,-78
599621893992999680,-138
599621894000686336,-67
599621894008372992,-73
599621894016059776,-16
599621894023746432,32
599621894031433216,-6
599621894039119872,-13
599621894046806528,13
599621894054493312,9
599621894062179968,6
599621894069866624,20
599621894077553408,16
599621894085240064,-2
599621894092926848,13
599621894100613504,50
599621894108300160,55
599621894115986944,43
599621894123673600,48
599621894131360256,55
599621894139047040,55
599621894146733696,64
599621894154420480,71
599621894162107208,73
599621894169793664,80
599621894177480064,92
599621894185166336,101
599621894192852736,113
599621894200539136,122
599621894208225408,127
599621894215911808,134
599621894223598208,140
599621894231284480,143
599621894238970880,127
599621894246657280,97
599621894254343552,67
599621894262029952,39
599621894269716224,9
599621894277402624,-18
599621894285089024,-36
599621894292775296,-43
599621894300461696,-48
599621894308148096,-55
599621894315834368,-57
599621894323520768,-46
599621894331207168,-39
599621894338893440,-36
599621894346579840,-36
599621894354266240,-32
599621894361952512,-34
599621894369638912,-36
599621894377325312,-36
599621894385011584,-30
599621894392697984,-23
599621894400384384,-25
599621894408070656,-27
599621894415757056,-23
599621894423443456,-6
599621894431129728,-4
599621894438816128,-13
599621894446502400,-16
599621894454188800,-9
599621894461875200,-4
599621894469561472,-4
599621894477247872,-9
599621894484934272,-9
599621894492620544,-2
599621894500306944,2
599621894507993344,-2
599621894515679616,-6
599621894523366016,-6
599621894531052416,-2
599621894538738688,0
599621894546425088,0
599621894554111488,-2
599621894561797760,-2
599621894569484160,0
599621894577170560,2
599621894584856832,0
599621894592543232,-4
599621894600229632,-2
599621894607915904,4
599621894615602304,4
599621894623288576,0
599621894630974976,2
599621894638661376,4
599621894646347648,2
599621894654034048,4
599621894661720448,4
599621894669406720,4
599621894677093120,2
599621894684779520,0
599621894692465792,0
599621894700152192,4
599621894707838592,11
599621894715524864,9
599621894723211160,4
599621894730897792,2
599621894738584448,-2
599621894746271104,-2
599621894753957632,18
599621894761644288,41
599621894769330944,46
599621894777017600,43
599621894784704256,43
599621894792390912,32
599621894800077440,11
599621894807764096,0
599621894815450752,2
599621894823137408,4
599621894830824064,4
599621894838510720,9
599621894846197248,6
599621894853883904,2
599621894861570560,4
599621894869257216,11
599621894876943872,9
599621894884630528,-23
599621894892317056,-117
599621894900003712,-212
599621894907690368,-90
599621894915377024,335
599621894923063680,797
599621894930750336,832
599621894938436864,337
599621894946123520,-104
599621894953810176,-129
599621894961496832,-73
599621894969183488,-80
599621894976870144,-9
599621894984556672,23
599621894992243328,-20
599621894999929984,-16
599621895007616640,11
599621895015303296,2
599621895022989952,-2
599621895030676480,11
599621895038363136,16
599621895046049792,16
599621895053736448,25
599621895061423104,30
599621895069109632,30
599621895076796288,32
599621895084482944,39
599621895092169600,41
