599619376889713920,154
599619376897399936,135
599619376905085952,101
599619376912771840,62
599619376920457856,31
599619376928143872,7
599619376935829888,-9
599619376943515904,-16
599619376951201920,-21
599619376958887936,-26
599619376966573898,-26
599619376974259712,-24
599619376981945472,-24
599619376989631232,-31
599619376997316864,-29
599619377005002624,-19
599619377012688384,-19
599619377020374144,-19
599619377028059776,-16
599619377035745536,-14
599619377043431296,-12
599619377051117056,-14
599619377058802688,-12
599619377066488448,-4
599619377074174208,-9
599619377081859968,-24
599619377089545600,-26
599619377097231360,-19
599619377104917120,-16
599619377112602880,-4
599619377120288512,26
599619377127974272,53
599619377135660032,53
599619377143345792,48
599619377151031424,38
599619377158717184,7
599619377166402944,-21
599619377174088704,-21
599619377181774336,-9
599619377189460096,-9
599619377197145856,-14
599619377204831616,-16
599619377212517248,-19
599619377220203008,-21
599619377227888768,-26
599619377235574528,-94
599619377243260160,-253
599619377250945920,-297
599619377258631680,79
599619377266317440,768
599619377274003072,1131
599619377281688832,681
599619377289374592,-62
599619377297060352,-309
599619377304745984,-203
599619377312431744,-137
599619377320117504,-79
599619377327803264,-38
599619377335488896,-62
599619377343174656,-62
599619377350860416,-36
599619377358546176,-33
599619377366231808,-38
599619377373917568,-29
599619377381603328,-21
599619377389289088,-14
599619377396974720,-4
599619377404660480,-4
599619377412346240,-7
599619377420032000,9
599619377427717632,24
599619377435403392,31
599619377443089152,45
599619377450774912,58
599619377458460544,60
599619377466146304,70
599619377473832064,82
599619377481517824,84
599619377489203456,91
599619377496889216,99
599619377504574976,94
599619377512260736,79
599619377519946368,72
599619377527632067,58
599619377535318016,21
599619377543003904,-14
599619377550689792,-41
599619377558375680,-62
599619377566061440,-74
599619377573747328,-82
599619377581433216,-89
599619377589119104,-94
599619377596804992,-89
599619377604490880,-77
599619377612176640,-72
599619377619862528,-72
599619377627548416,-65
599619377635234304,-55
599619377642920192,-50
599619377650606080,-48
599619377658291840,-41
599619377665977728,-36
599619377673663616,-33
599619377681349504,-29
599619377689035392,-26
599619377696721280,-29
599619377704407168,-31
599619377712092928,-33
599619377719778816,-33
599619377727464704,-29
599619377735150592,-4
599619377742836480,24
599619377750522368,33
599619377758208128,31
599619377765894016,31
599619377773579904,4
599619377781265792,-29
599619377788951680,-33
599619377796637568,-29
599619377804323328,-31
599619377812009216,-31
599619377819695104,-26
599619377827380992,-26
599619377835066880,-21
599619377842752768,-9
599619377850438656,-41
599619377858124416,-171
599619377865810304,-297
599619377873496192,-106
599619377881182080,497
599619377888867968,1070
599619377896553856,961
599619377904239616,224
599619377911925504,-285
599619377919611392,-261
599619377927297280,-149
599619377934983168,-94
599619377942669056,-31
599619377950354816,-29
599619377958040704,-50
599619377965726592,-33
599619377973412480,-19
599619377981098368,-24
599619377988784256,-16
599619377996470016,-12
599619378004155904,-12
599619378011841792,-2
599619378019527680,7
599619378027213568,9
599619378034899456,14
599619378042585344,24
599619378050271104,33
599619378057956992,38
599619378065642880,48
599619378073328768,55
599619378081014656,62
599619378088700410,72
599619378096386304,74
599619378104072192,74
599619378111758080,74
599619378119443968,74
599619378127129728,67
599619378134815616,58
599619378142501504,43
599619378150187392,21
599619378157873280,-9
599619378165559168,-43
599619378173244928,-62
599619378180930816,-74
599619378188616704,-84
599619378196302592,-89
599619378203988480,-87
599619378211674368,-87
599619378219360128,-87
599619378227046016,-79
599619378234731904,-74
599619378242417792,-72
599619378250103680,-67
599619378257789568,-60
599619378265475456,-58
599619378273161216,-53
599619378280847104,-48
599619378288532992,-45
599619378296218880,-45
599619378303904768,-43
599619378311590656,-41
599619378319276416,-43
599619378326962304,-45
599619378334648192,-45
599619378342334080,-41
599619378350019968,-21
599619378357705856,9
599619378365391616,31
599619378373077504,36
599619378380763392,31
599619378388449280,12
599619378396135168,-21
599619378403821056,-33
599619378411506944,-29
599619378419192704,-24
599619378426878592,-26
599619378434564480,-24
599619378442250368,-21
599619378449936256,-19
599619378457622144,-19
599619378465307904,-41
599619378472993792,-149
599619378480679680,-302
599619378488365568,-205
599619378496051456,331
599619378503737344,990
599619378511423104,1094
599619378519108992,437
599619378526794880,-222
599619378534480768,-306
599619378542166656,-166
599619378549852544,-103
599619378557538304,-55
599619378565224192,-43
599619378572910080,-62
599619378580595968,-50
599619378588281856,-31
599619378595967744,-31
599619378603653632,-29
599619378611339392,-21
599619378619025280,-14
599619378626711168,-7
599619378634397056,0
599619378642082944,4
599619378649768753,14
599619378657454592,21
599619378665140480,31
599619378672826368,41
599619378680512256,48
599619378688198016,53
599619378695883904,62
599619378703569792,70
599619378711255680,74
599619378718941568,74
599619378726627456,72
599619378734313216,67
599619378741999104,67
599619378749684992,62
599619378757370880,53
599619378765056768,31
599619378772742656,0
599619378780428416,-31
599619378788114304,-53
599619378795800192,-70
599619378803486080,-82
599619378811171968,-89
599619378818857856,-89
599619378826543744,-87
599619378834229504,-82
599619378841915392,-77
599619378849601280,-74
599619378857287168,-72
599619378864973056,-65
599619378872658944,-60
599619378880344704,-55
599619378888030592,-53
599619378895716480,-48
599619378903402368,-45
599619378911088256,-43
599619378918774144,-43
599619378926459904,-41
599619378934145792,-41
599619378941831680,-45
599619378949517568,-50
599619378957203456,-55
599619378964889344,-53
599619378972575232,-31
599619378980260992,4
599619378987946880,24
599619378995632768,26
599619379003318656,21
599619379011004544,0
599619379018690432,-29
599619379026376192,-33
599619379034062080,-24
599619379041747968,-21
599619379049433856,-24
599619379057119744,-21
599619379064805632,-16
599619379072491392,-16
599619379080177280,-19
599619379087863168,-45
599619379095549056,-164
599619379103234944,-299
599619379110920832,-140
599619379118606592,437
599619379126292480,1017
599619379133978368,949
599619379141664256,234
599619379149350144,-294
599619379157036032,-273
599619379164721920,-147
599619379172407680,-89
599619379180093568,-26
599619379187779456,-24
599619379195465344,-48
599619379203151232,-29
599619379210837096,-12
599619379218523008,-16
599619379226208896,-12
599619379233894784,-2
599619379241580672,-2
599619379249266432,4
599619379256952320,9
599619379264638208,14
599619379272324096,24
599619379280009984,33
599619379287695872,41
599619379295381632,48
599619379303067520,55
599619379310753408,60
599619379318439296,67
599619379326125184,70
599619379333811072,70
599619379341496832,70
599619379349182720,72
599619379356868608,67
599619379364554496,62
599619379372240384,58
599619379379926272,48
599619379387612160,29
599619379395297920,0
599619379402983808,-31
599619379410669696,-53
599619379418355584,-67
599619379426041472,-74
599619379433727360,-82
599619379441413120,-82
599619379449099008,-79
599619379456784896,-74
599619379464470784,-72
599619379472156672,-67
599619379479842560,-62
599619379487528320,-58
599619379495214208,-53
599619379502900096,-45
599619379510585984,-43
599619379518271872,-41
599619379525957760,-36
599619379533643648,-33
599619379541329408,-33
599619379549015296,-33
599619379556701184,-33
599619379564387072,-41
599619379572072960,-41
599619379579758848,-29
599619379587444608,-7
599619379595130496,19
599619379602816384,36
599619379610502272,36
599619379618188160,24
599619379625874048,-2
599619379633559808,-24
599619379641245696,-24
599619379648931584,-16
599619379656617472,-19
599619379664303360,-19
599619379671989248,-14
599619379679675136,-16
599619379687360896,-19
599619379695046784,-16
599619379702732672,-50
599619379710418560,-190
599619379718104448,-275
599619379725790336,4
599619379733476096,616
599619379741161984,1022
599619379748847872,703
599619379756533760,-16
599619379764219648,-311
599619379771905443,-205
599619379779591296,-137
599619379787277184,-70
599619379794963072,12
599619379802648960,-12
599619379810334720,-36
599619379818020608,-2
599619379825706496,2
599619379833392384,-7
599619379841078272,7
599619379848764160,14
599619379856449920,14
599619379864135808,21
599619379871821696,31
599619379879507584,33
599619379887193472,41
599619379894879360,53
599619379902565120,55
599619379910251008,58
599619379917936896,67
599619379925622784,79
599619379933308672,82
599619379940994560,79
599619379948680448,82
599619379956366208,84
599619379964052096,77
599619379971737984,72
599619379979423872,70
599619379987109760,60
599619379994795648,43
599619380002481408,16
599619380010167296,-9
599619380017853184,-36
599619380025539072,-58
599619380033224960,-74
599619380040910848,-79
599619380048596608,-79
599619380056282496,-79
599619380063968384,-82
599619380071654272,-79
599619380079340160,-77
599619380087026048,-72
599619380094711936,-65
599619380102397696,-58
599619380110083584,-53
599619380117769472,-41
599619380125455360,-43
599619380133141248,-53
599619380140827136,-48
599619380148512896,-38
599619380156198784,-38
599619380163884672,-31
599619380171570560,-24
599619380179256448,-29
599619380186942336,-43
599619380194628096,-50
599619380202313984,-48
599619380209999872,-19
599619380217685760,14
599619380225371648,19
599619380233057536,16
599619380240743296,16
599619380248429184,-7
599619380256115072,-36
599619380263800960,-38
599619380271486848,-29
599619380279172736,-29
599619380286858624,-31
599619380294544384,-24
599619380302230272,-21
599619380309916160,-24
599619380317602048,-26
599619380325287936,-62
599619380332973786,-205
599619380340659712,-314
599619380348345600,-65
599619380356031488,572
599619380363717376,1092
599619380371403136,884
599619380379089024,130
599619380386774912,-309
599619380394460800,-248
599619380402146688,-142
599619380409832576,-94
599619380417518336,-38
599619380425204224,-45
599619380432890112,-60
599619380440576000,-38
599619380448261888,-24
599619380455947776,-26
599619380463633536,-21
599619380471319424,-14
599619380479005312,-9
599619380486691200,-4
599619380494377088,2
599619380502062976,9
599619380509748864,19
599619380517434624,26
599619380525120512,33
599619380532806400,38
599619380540492288,45
599619380548178176,55
599619380555864064,58
599619380563549824,60
599619380571235712,62
599619380578921600,60
599619380586607488,58
599619380594293376,55
599619380601979264,50
599619380609665024,48
599619380617350912,38
599619380625036800,14
599619380632722688,-9
599619380640408576,-33
599619380648094464,-53
599619380655780352,-65
599619380663466112,-72
599619380671152000,-77
599619380678837888,-72
599619380686523776,-70
599619380694209664,-65
599619380701895552,-60
599619380709581312,-55
599619380717267200,-53
599619380724953088,-48
599619380732638976,-43
599619380740324864,-41
599619380748010752,-36
599619380755696512,-33
599619380763382400,-33
599619380771068288,-33
599619380778754176,-31
599619380786440064,-29
599619380794125952,-31
599619380801811712,-29
599619380809497600,-29
599619380817183488,-33
599619380824869376,-38
599619380832555264,-43
599619380840241152,-48
599619380847927040,-48
599619380855612800,-21
599619380863298688,19
599619380870984576,38
599619380878670464,36
599619380886356352,26
599619380894042129,4
599619380901728000,-21
599619380909413888,-24
599619380917099776,-14
599619380924785664,-16
599619380932471424,-19
599619380940157312,-14
599619380947843200,-12
599619380955529088,-12
599619380963214976,-16
599619380970900864,-65
599619380978586624,-207
599619380986272512,-304
599619380993958400,-36
599619381001644288,609
599619381009330176,1114
599619381017016064,879
599619381024701824,120
599619381032387712,-304
599619381040073600,-236
599619381047759488,-125
599619381055445376,-77
599619381063131264,-36
599619381070817152,-50
599619381078502912,-60
599619381086188800,-36
599619381093874688,-29
599619381101560576,-31
599619381109246464,-21
599619381116932352,-12
599619381124618112,-12
599619381132304000,-4
599619381139989888,2
599619381147675776,7
599619381155361664,14
599619381163047552,24
599619381170733312,31
599619381178419200,36
599619381186105088,43
599619381193790976,50
599619381201476864,53
599619381209162752,55
599619381216848640,55
599619381224534400,53
599619381232220288,50
599619381239906176,48
599619381247592064,43
599619381255277952,38
599619381262963840,31
599619381270649600,14
599619381278335488,-9
599619381286021376,-33
599619381293707264,-50
599619381301393152,-62
599619381309079040,-72
599619381316764800,-74
599619381324450688,-72
599619381332136576,-67
599619381339822464,-62
599619381347508352,-58
599619381355194240,-55
599619381362880000,-53
599619381370565888,-48
599619381378251776,-43
599619381385937664,-41
599619381393623552,-36
599619381401309440,-33
599619381408995328,-33
599619381416681088,-33
599619381424366976,-31
599619381432052864,-31
599619381439738752,-31
599619381447424640,-31
599619381455110472,-31
599619381462796416,-29
599619381470482304,-29
599619381478168192,-29
599619381485854080,-26
599619381493539840,-26
599619381501225728,-26
599619381508911616,-29
599619381516597504,-36
599619381524283392,-48
599619381531969280,-55
599619381539655040,-36
599619381547340928,12
599619381555026816,41
599619381562712704,38
599619381570398592,31
599619381578084480,14
599619381585770240,-14
599619381593456128,-24
599619381601142016,-14
599619381608827904,-12
599619381616513792,-16
599619381624199680,-14
599619381631885568,-12
599619381639571328,-14
599619381647257216,-19
599619381654943104,-74
599619381662628992,-227
599619381670314880,-292
599619381678000768,31
599619381685686528,686
599619381693372416,1102
599619381701058304,751
599619381708744192,4
599619381716430080,-319
599619381724115968,-215
599619381731801728,-120
599619381739487616,-70
599619381747173504,-38
599619381754859392,-55
599619381762545280,-58
599619381770231168,-36
599619381777917056,-33
599619381785602816,-31
599619381793288704,-21
599619381800974592,-16
599619381808660480,-14
599619381816346368,-7
599619381824032256,0
599619381831718016,4
599619381839403904,12
599619381847089792,19
599619381854775680,26
599619381862461568,33
599619381870147456,38
599619381877833216,41
599619381885519104,45
599619381893204992,50
599619381900890880,50
599619381908576768,48
599619381916262656,45
599619381923948416,41
599619381931634304,36
599619381939320192,33
599619381947006080,29
599619381954691968,14
599619381962377856,-7
599619381970063744,-29
599619381977749504,-48
599619381985435392,-60
599619381993121280,-67
599619382000807168,-72
599619382008493056,-72
599619382016178815,-72
599619382023864704,-70
599619382031550592,-65
599619382039236480,-60
599619382046922368,-55
599619382054608128,-48
599619382062294016,-45
599619382069979904,-43
599619382077665792,-38
599619382085351680,-38
599619382093037568,-38
599619382100723328,-33
599619382108409216,-31
599619382116095104,-31
599619382123780992,-26
599619382131466880,-26
599619382139152768,-26
599619382146838528,-26
599619382154524416,-24
599619382162210304,-24
599619382169896192,-24
599619382177582080,-24
599619382185267968,-21
599619382192953856,-21
599619382200639616,-26
599619382208325504,-33
599619382216011392,-41
599619382223697280,-36
599619382231383168,0
599619382239069056,43
599619382246754816,50
599619382254440704,38
599619382262126592,24
599619382269812480,0
599619382277498368,-14
599619382285184256,-7
599619382292870016,-4
599619382300555904,-7
599619382308241792,-4
599619382315927680,-2
599619382323613568,-2
599619382331299456,-4
599619382338985344,-31
599619382346671104,-152
599619382354356992,-280
599619382362042880,-111
599619382369728768,459
599619382377414656,988
599619382385100544,858
599619382392786304,157
599619382400472192,-282
599619382408158080,-232
599619382415843968,-137
599619382423529856,-87
599619382431215744,-9
599619382438901504,-9
599619382446587392,-38
599619382454273280,-14
599619382461959168,0
599619382469645056,-7
599619382477330944,-2
599619382485016704,12
599619382492702592,16
599619382500388480,21
599619382508074368,24
599619382515760256,29
599619382523446144,38
599619382531132032,45
599619382538817792,50
599619382546503680,55
599619382554189568,60
599619382561875456,65
599619382569561344,67
599619382577247158,72
599619382584932992,70
599619382592618880,65
599619382600304768,60
599619382607990656,60
599619382615676416,58
599619382623362304,53
599619382631048192,41
599619382638734080,31
599619382646419968,14
599619382654105856,-7
599619382661791616,-29
599619382669477504,-43
599619382677163392,-53
599619382684849280,-58
599619382692535168,-58
599619382700221056,-58
599619382707906816,-55
599619382715592704,-50
599619382723278592,-45
599619382730964480,-43
599619382738650368,-41
599619382746336256,-36
599619382754022144,-31
599619382761707904,-26
599619382769393792,-24
599619382777079680,-21
599619382784765568,-19
599619382792451456,-19
599619382800137344,-19
599619382807823104,-19
599619382815508992,-19
599619382823194880,-19
599619382830880768,-19
599619382838566656,-16
599619382846252544,-16
599619382853938304,-14
599619382861624192,-14
599619382869310080,-14
599619382876995968,-14
599619382884681856,-14
599619382892367744,-14
599619382900053632,-21
599619382907739392,-29
599619382915425280,-36
599619382923111168,-41
599619382930797056,-24
599619382938482944,21
599619382946168832,50
599619382953854592,45
599619382961540480,41
599619382969226368,26
599619382976912256,-2
599619382984598144,-12
599619382992284032,-2
599619382999969792,-2
599619383007655680,-4
599619383015341568,-2
599619383023027456,-2
599619383030713344,-2
599619383038399232,-9
599619383046085120,-72
599619383053770880,-224
599619383061456768,-270
599619383069142656,79
599619383076828544,725
599619383084514432,1075
599619383092200320,671
599619383099886080,-41
599619383107571968,-297
599619383115257856,-186
599619383122943744,-103
599619383130629632,-48
599619383138315505,-16
599619383146001408,-38
599619383153687296,-38
599619383161373184,-16
599619383169059072,-16
599619383176744832,-16
599619383184430720,-4
599619383192116608,0
599619383199802496,2
599619383207488384,9
599619383215174272,16
599619383222860032,21
599619383230545920,26
599619383238231808,33
599619383245917696,43
599619383253603584,48
599619383261289472,53
599619383268975232,55
599619383276661120,60
599619383284347008,60
599619383292032896,60
599619383299718784,58
599619383307404672,55
599619383315090560,50
599619383322776320,43
599619383330462208,38
599619383338148096,33
599619383345833984,21
599619383353519872,2
599619383361205760,-16
599619383368891520,-36
599619383376577408,-45
599619383384263296,-55
599619383391949184,-58
599619383399635072,-55
599619383407320960,-55
599619383415006720,-53
599619383422692608,-48
599619383430378496,-45
599619383438064384,-43
599619383445750272,-38
599619383453436160,-31
599619383461122048,-26
599619383468807808,-24
599619383476493696,-21
599619383484179584,-16
599619383491865472,-14
599619383499551360,-14
599619383507237248,-12
599619383514923008,-12
599619383522608896,-14
599619383530294784,-14
599619383537980672,-14
599619383545666560,-12
599619383553352448,-14
599619383561038208,-14
599619383568724096,-12
599619383576409984,-9
599619383584095872,-9
599619383591781760,-7
599619383599467648,-9
599619383607153408,-9
599619383614839296,-9
599619383622525184,-9
599619383630211072,-16
599619383637896960,-24
599619383645582848,-33
599619383653268736,-36
599619383660954496,-9
599619383668640384,38
599619383676326272,55
599619383684012160,48
599619383691698048,48
599619383699383848,31
599619383707069696,0
599619383714755584,-4
599619383722441472,4
599619383730127360,4
599619383737813120,2
599619383745499008,2
599619383753184896,4
599619383760870784,4
599619383768556672,-9
599619383776242560,-101
599619383783928320,-258
599619383791614208,-217
599619383799300096,251
599619383806985984,896
599619383814671872,1070
599619383822357760,497
599619383830043520,-154
599619383837729408,-275
599619383845415296,-145
599619383853101184,-77
599619383860787072,-29
599619383868472960,-12
599619383876158848,-36
599619383883844608,-26
599619383891530496,-7
599619383899216384,-9
599619383906902272,-4
599619383914588160,4
599619383922274048,7
599619383929959808,12
599619383937645696,21
599619383945331584,26
599619383953017472,31
599619383960703360,38
599619383968389248,45
599619383976075008,53
599619383983760896,58
599619383991446784,62
599619383999132672,70
599619384006818560,70
599619384014504448,72
599619384022190336,72
599619384029876096,65
599619384037561984,60
599619384045247872,58
599619384052933760,55
599619384060619648,48
599619384068305536,41
599619384075991296,29
599619384083677184,7
599619384091363072,-14
599619384099048960,-31
599619384106734848,-43
599619384114420736,-53
599619384122106496,-55
599619384129792384,-55
599619384137478272,-53
599619384145164160,-48
599619384152850048,-45
599619384160535936,-41
599619384168221696,-38
599619384175907584,-36
599619384183593472,-31
599619384191279360,-29
599619384198965248,-24
599619384206651136,-21
599619384214337024,-19
599619384222022784,-19
599619384229708672,-19
599619384237394560,-16
599619384245080448,-14
599619384252766336,-14
599619384260452191,-14
599619384268138112,-14
599619384275824000,-14
599619384283509888,-14
599619384291195776,-12
599619384298881536,-12
599619384306567424,-9
599619384314253312,-9
599619384321939200,-7
599619384329625088,-7
599619384337310976,-7
599619384344996736,-7
599619384352682624,-7
599619384360368512,-12
599619384368054400,-16
599619384375740288,-24
599619384383426176,-33
599619384391111936,-21
599619384398797824,24
599619384406483712,58
599619384414169600,55
599619384421855488,48
599619384429541376,33
599619384437227264,7
599619384444913024,-4
599619384452598912,0
599619384460284800,2
599619384467970688,0
599619384475656576,2
599619384483342464,4
599619384491028224,4
599619384498714112,0
599619384506400000,-60
599619384514085888,-212
599619384521771776,-263
599619384529457664,77
599619384537143424,713
599619384544829312,1056
599619384552515200,645
599619384560201088,-65
599619384567886976,-304
599619384575572864,-186
599619384583258752,-111
599619384590944512,-45
599619384598630400,2
599619384606316288,-26
599619384614002176,-26
599619384621688064,0
599619384629373952,2
599619384637059712,0
599619384644745600,9
599619384652431488,14
599619384660117376,19
599619384667803264,26
599619384675489152,31
599619384683174912,36
599619384690860800,41
599619384698546688,48
599619384706232576,55
599619384713918464,65
599619384721604352,70
599619384729290112,74
599619384736976000,79
599619384744661888,79
599619384752347776,82
599619384760033664,79
599619384767719552,77
599619384775405440,74
599619384783091200,70
599619384790777088,65
599619384798462976,58
599619384806148864,45
599619384813834752,24
599619384821520534,-2
599619384829206272,-24
599619384836892032,-36
599619384844577920,-48
599619384852263680,-53
599619384859949440,-53
599619384867635200,-50
599619384875321088,-50
599619384883006848,-45
599619384890692608,-41
599619384898378496,-38
599619384906064256,-33
599619384913750016,-26
599619384921435904,-24
599619384929121664,-24
599619384936807424,-21
599619384944493184,-16
599619384952179072,-19
599619384959864832,-16
599619384967550592,-14
599619384975236480,-12
599619384982922240,-12
599619384990608000,-12
599619384998293888,-12
599619385005979648,-9
599619385013665408,-9
599619385021351168,-7
599619385029037056,-7
599619385036722816,-7
599619385044408576,-7
599619385052094464,-9
599619385059780224,-12
599619385067465984,-16
599619385075151872,-24
599619385082837632,-24
599619385090523392,9
599619385098209152,53
599619385105895040,60
599619385113580800,50
599619385121266560,38
599619385128952448,14
599619385136638208,0
599619385144323968,4
599619385152009728,7
599619385159695616,4
599619385167381376,7
599619385175067136,7
599619385182753024,7
599619385190438784,7
599619385198124544,-12
599619385205810432,-125
599619385213496192,-261
599619385221181952,-120
599619385228867712,415
599619385236553600,947
599619385244239360,853
599619385251925120,171
599619385259611008,-277
599619385267296768,-222
599619385274982528,-120
599619385282668416,-70
599619385290354176,7
599619385298039936,9
599619385305725696,-21
599619385313411584,0
599619385321097344,19
599619385328783104,7
599619385336468992,14
599619385344154752,31
599619385351840512,31
599619385359526400,33
599619385367212160,41
599619385374897920,48
599619385382583794,53
599619385390269312,60
599619385397954816,67
599619385405640320,72
599619385413325824,79
599619385421011328,84
599619385428696960,89
599619385436382464,91
599619385444067968,94
599619385451753472,91
599619385459438976,89
599619385467124480,84
599619385474809984,82
599619385482495488,77
599619385490181120,70
599619385497866624,53
599619385505552128,31
599619385513237632,4
599619385520923136,-16
599619385528608640,-29
599619385536294144,-38
599619385543979648,-43
599619385551665280,-45
599619385559350784,-45
599619385567036288,-41
599619385574721792,-38
599619385582407296,-33
599619385590092800,-29
599619385597778304,-26
599619385605463808,-21
599619385613149312,-16
599619385620834944,-14
599619385628520448,-12
599619385636205952,-7
599619385643891456,-4
599619385651576960,-4
599619385659262464,-2
599619385666947968,-2
599619385674633472,-2
599619385682319104,-2
599619385690004608,-2
599619385697690112,-2
599619385705375616,0
599619385713061120,0
599619385720746624,0
599619385728432128,2
599619385736117632,2
599619385743803136,0
599619385751488768,0
599619385759174272,0
599619385766859776,-4
599619385774545280,-14
599619385782230784,-21
599619385789916288,-21
599619385797601792,12
599619385805287296,55
599619385812972928,65
599619385820658432,58
599619385828343936,50
599619385836029440,24
599619385843714944,4
599619385851400448,7
599619385859085952,14
599619385866771456,9
599619385874457088,9
599619385882142592,12
599619385889828096,12
599619385897513600,9
599619385905199104,-16
599619385912884608,-128
599619385920570112,-263
599619385928255616,-125
599619385935941120,420
599619385943626702,993
599619385951312640,954
599619385958998528,285
599619385966684416,-234
599619385974370304,-232
599619385982056064,-111
599619385989741952,-58
599619385997427840,-12
599619386005113728,-16
599619386012799616,-31
599619386020485504,-12
599619386028171264,0
599619386035857152,-4
599619386043543040,2
599619386051228928,12
599619386058914816,14
599619386066600704,19
599619386074286464,29
599619386081972352,33
599619386089658240,41
599619386097344128,48
599619386105030016,53
599619386112715904,58
599619386120401792,65
599619386128087552,72
599619386135773440,77
599619386143459328,82
599619386151145216,84
599619386158831104,82
599619386166516992,79
599619386174202752,77
599619386181888640,72
599619386189574528,67
599619386197260416,60
599619386204946304,45
599619386212632192,26
599619386220317952,2
599619386228003840,-14
599619386235689728,-29
599619386243375616,-41
599619386251061504,-43
599619386258747392,-45
599619386266433280,-43
599619386274119040,-41
599619386281804928,-31
599619386289490816,-19
599619386297176704,-16
599619386304862592,-33
599619386312548480,-33
599619386320234240,-21
599619386327920128,-26
599619386335606016,-29
599619386343291904,-19
599619386350977792,-24
599619386358663680,-31
599619386366349440,-31
599619386374035328,-31
599619386381721216,-43
599619386389407104,-50
599619386397092992,-53
599619386404778880,-55
599619386412464768,-60
599619386420150528,-65
599619386427836416,-67
599619386435522304,-70
599619386443208192,-70
599619386450894080,-65
599619386458579968,-62
599619386466265728,-62
599619386473951616,-62
599619386481637504,-65
599619386489323392,-72
599619386497009280,-79
599619386504695049,-82
599619386512380928,-65
599619386520066816,-16
599619386527752704,14
599619386535438592,12
599619386543124352,9
599619386550810240,-4
599619386558496128,-31
599619386566182016,-38
599619386573867904,-29
599619386581553792,-26
599619386589239552,-29
599619386596925440,-26
599619386604611328,-24
599619386612297216,-19
599619386619983104,-26
599619386627668992,-91
599619386635354752,-241
599619386643040640,-263
599619386650726528,113
599619386658412416,756
599619386666098304,1058
599619386673784192,606
599619386681470080,-87
599619386689155840,-297
599619386696841728,-169
599619386704527616,-84
599619386712213504,-36
599619386719899392,-14
599619386727585280,-36
599619386735271040,-26
599619386742956928,-7
599619386750642816,-7
599619386758328704,-2
599619386766014592,9
599619386773700480,14
599619386781386240,19
599619386789072128,26
599619386796758016,33
599619386804443904,41
599619386812129792,50
599619386819815680,58
599619386827501568,62
599619386835187328,70
599619386842873216,79
599619386850559104,84
599619386858244992,89
599619386865930880,91
599619386873616768,94
599619386881302528,94
599619386888988416,87
599619386896674304,84
599619386904360192,79
599619386912046080,74
599619386919731968,65
599619386927417728,48
599619386935103616,24
599619386942789504,0
599619386950475392,-19
599619386958161280,-31
599619386965847168,-38
599619386973532928,-45
599619386981218816,-45
599619386988904704,-43
599619386996590592,-41
599619387004276480,-38
599619387011962368,-31
599619387019648256,-26
599619387027334016,-21
599619387035019904,-19
599619387042705792,-14
599619387050391680,-7
599619387058077568,-2
599619387065763392,-2
599619387073449216,0
599619387081135104,2
599619387088820992,4
599619387096506880,7
599619387104192640,7
599619387111878528,7
599619387119564416,7
599619387127250304,7
599619387134936192,7
599619387142622080,9
599619387150307840,12
599619387157993728,12
599619387165679616,9
599619387173365504,12
599619387181051392,12
599619387188737280,12
599619387196423040,7
599619387204108928,2
599619387211794816,-7
599619387219480704,-14
599619387227166592,2
599619387234852480,48
599619387242538368,77
599619387250224128,74
599619387257910016,65
599619387265595904,48
599619387273281792,19
599619387280967680,12
599619387288653568,19
599619387296339328,21
599619387304025216,19
599619387311711104,16
599619387319396992,16
599619387327082880,19
599619387334768768,12
599619387342454528,-53
599619387350140416,-205
599619387357826304,-232
599619387365512192,145
599619387373198080,787
599619387380883968,1080
599619387388569856,616
599619387396255616,-82
599619387403941504,-287
599619387411627392,-157
599619387419313280,-72
599619387426999168,-19
599619387434685056,2
599619387442370816,-19
599619387450056704,-14
599619387457742592,7
599619387465428480,4
599619387473114368,4
599619387480800256,16
599619387488486016,24
599619387496171904,26
599619387503857792,31
599619387511543680,41
599619387519229568,45
599619387526915456,53
599619387534601216,60
599619387542287104,67
599619387549972992,74
599619387557658880,82
599619387565344768,89
599619387573030656,96
599619387580716544,101
599619387588402304,101
599619387596088192,99
599619387603774080,99
599619387611459968,96
599619387619145856,91
599619387626831735,84
599619387634517632,72
599619387642203520,50
599619387649889408,21
599619387657575296,-2
599619387665261056,-21
599619387672946944,-36
599619387680632832,-43
599619387688318720,-48
599619387696004608,-50
599619387703690496,-48
599619387711376256,-43
599619387719062144,-38
599619387726748032,-38
599619387734433920,-33
599619387742119808,-24
599619387749805696,-19
599619387757491456,-19
599619387765177344,-14
599619387772863232,-7
599619387780549120,-4
599619387788235008,-4
599619387795920896,-4
599619387803606784,-4
599619387811292544,-2
599619387818978432,0
599619387826664320,-2
599619387834350208,-2
599619387842036096,0
599619387849721984,0
599619387857407744,0
599619387865093632,2
599619387872779520,2
599619387880465408,2
599619387888151296,0
599619387895837184,-2
599619387903522944,-7
599619387911208832,-12
599619387918894720,-16
599619387926580608,2
599619387934266496,45
599619387941952384,67
599619387949638272,62
599619387957324032,53
599619387965009920,33
599619387972695808,12
599619387980381696,7
599619387988067584,14
599619387995753472,16
599619388003439232,12
599619388011125120,12
599619388018811008,14
599619388026496896,14
599619388034182784,7
599619388041868672,-60
599619388049554432,-205
599619388057240320,-212
599619388064926208,176
599619388072612096,771
599619388080297984,954
599619388087983872,422
599619388095669632,-190
599619388103355520,-270
599619388111041408,-140
599619388118727296,-94
599619388126413184,-7
599619388134099072,41
599619388141784960,-2
599619388149470720,0
599619388157156608,29
599619388164842496,26
599619388172528384,26
599619388180214272,38
599619388187900078,38
599619388195585920,43
599619388203271808,53
599619388210957696,60
599619388218643584,65
599619388226329344,72
599619388234015232,79
599619388241701120,87
599619388249387008,91
599619388257072896,101
599619388264758784,111
599619388272444544,116
599619388280130432,120
599619388287816320,120
599619388295502208,120
599619388303188096,120
599619388310873984,118
599619388318559744,116
599619388326245632,106
599619388333931520,89
599619388341617408,65
599619388349303296,31
599619388356989184,4
599619388364675072,-14
599619388372360832,-26
599619388380046720,-33
599619388387732608,-38
599619388395418496,-38
599619388403104384,-33
599619388410790272,-33
599619388418476032,-29
599619388426161920,-24
599619388433847808,-19
599619388441533696,-16
599619388449219584,-12
599619388456905472,-7
599619388464591232,-2
599619388472277120,0
599619388479963008,2
599619388487648896,4
599619388495334784,7
599619388503020672,7
599619388510706560,7
599619388518392320,7
599619388526078208,9
599619388533764096,12
599619388541449984,12
599619388549135872,9
599619388556821760,9
599619388564507520,12
599619388572193408,12
599619388579879296,14
599619388587565184,16
599619388595251072,16
599619388602936960,12
599619388610622720,2
599619388618308608,0
599619388625994496,16
599619388633680384,60
599619388641366272,82
599619388649052160,77
599619388656737920,70
599619388664423808,53
599619388672109696,26
599619388679795584,19
599619388687481472,29
599619388695167360,26
599619388702853248,21
599619388710539008,21
599619388718224896,24
599619388725910784,24
599619388733596672,16
599619388741282560,-36
599619388748968421,-181
599619388756654336,-241
599619388764340224,70
599619388772026112,693
599619388779712000,1061
599619388787397760,691
599619388795083648,-12
599619388802769536,-273
599619388810455424,-159
599619388818141312,-84
599619388825827200,-29
599619388833512960,9
599619388841198848,-19
599619388848884736,-21
599619388856570624,4
599619388864256512,4
599619388871942400,4
599619388879628160,16
599619388887314048,21
599619388894999936,21
599619388902685824,29
599619388910371712,36
599619388918057600,41
599619388925743488,48
599619388933429248,53
599619388941115136,60
599619388948801024,70
599619388956486912,74
599619388964172800,79
599619388971858688,87
599619388979544448,91
599619388987230336,91
599619388994916224,91
599619389002602112,91
599619389010288000,89
599619389017973888,82
599619389025659648,74
599619389033345536,62
599619389041031424,41
599619389048717312,14
599619389056403200,-9
599619389064089088,-26
599619389071774976,-38
599619389079460736,-45
599619389087146624,-48
599619389094832512,-50
599619389102518400,-48
599619389110204288,-45
599619389117890176,-41
599619389125575936,-38
599619389133261824,-33
599619389140947712,-31
599619389148633600,-26
599619389156319488,-21
599619389164005376,-16
599619389171691136,-12
599619389179377024,-7
599619389187062912,-4
599619389194748800,-2
599619389202434688,-2
599619389210120576,-2
599619389217806336,0
599619389225492224,2
599619389233178112,2
599619389240864000,2
599619389248549888,2
599619389256235776,2
599619389263921664,2
599619389271607424,4
599619389279293312,4
599619389286979200,4
599619389294665088,4
599619389302350976,7
599619389310036764,7
599619389317722624,4
599619389325408512,2
599619389333094400,-2
599619389340780288,-9
599619389348466048,-19
599619389356151936,-12
599619389363837824,29
599619389371523712,67
599619389379209600,65
599619389386895488,60
599619389394581248,55
599619389402267136,24
599619389409953024,4
599619389417638912,12
599619389425324800,16
599619389433010688,9
599619389440696448,9
599619389448382336,12
599619389456068224,12
599619389463754112,7
599619389471440000,-31
599619389479125888,-164
599619389486811776,-265
599619389494497536,-31
599619389502183424,575
599619389509869312,1075
599619389517555200,877
599619389525241088,154
599619389532926976,-258
599619389540612736,-195
599619389548298624,-89
599619389555984512,-45
599619389563670400,-14
599619389571356288,-29
599619389579042176,-33
599619389586727936,-12
599619389594413824,-7
599619389602099712,-7
599619389609785600,4
599619389617471488,12
599619389625157376,12
599619389632843264,19
599619389640529024,29
599619389648214912,33
599619389655900800,43
599619389663586688,50
599619389671272576,55
599619389678958464,65
599619389686644224,74
599619389694330112,79
599619389702016000,87
599619389709701888,91
599619389717387776,96
599619389725073664,99
599619389732759424,96
599619389740445312,94
599619389748131200,89
599619389755817088,84
599619389763502976,72
599619389771188864,55
599619389778874752,29
599619389786560512,0
599619389794246400,-19
599619389801932288,-33
599619389809618176,-45
599619389817304064,-50
599619389824989952,-53
599619389832675712,-53
599619389840361600,-50
599619389848047488,-48
599619389855733376,-43
599619389863419264,-38
599619389871105111,-33
599619389878791040,-29
599619389886476928,-26
599619389894162816,-24
599619389901848704,-19
599619389909534464,-14
599619389917220352,-14
599619389924906240,-9
599619389932592128,-7
599619389940278016,-4
599619389947963904,-2
599619389955649664,-2
599619389963335552,-2
599619389971021440,0
599619389978707328,0
599619389986393216,0
599619389994079104,0
599619390001764864,2
599619390009450752,2
599619390017136640,4
599619390024822528,7
599619390032508416,7
599619390040194304,4
599619390047880192,7
599619390055565952,9
599619390063251840,9
599619390070937728,4
599619390078623616,-2
599619390086309504,-9
599619390093995392,-14
599619390101681152,-9
599619390109367040,31
599619390117052928,70
599619390124738816,70
599619390132424704,65
599619390140110592,60
599619390147796352,33
599619390155482240,9
599619390163168128,14
599619390170854016,19
599619390178539904,16
599619390186225792,19
599619390193911680,21
599619390201597440,21
599619390209283328,21
599619390216969216,-12
599619390224655104,-140
599619390232340992,-261
599619390240026880,-70
599619390247712640,519
599619390255398528,1068
599619390263084416,947
599619390270770304,232
599619390278456192,-244
599619390286142080,-205
599619390293827840,-89
599619390301513728,-41
599619390309199616,-7
599619390316885504,-16
599619390324571392,-29
599619390332257280,-7
599619390339943040,0
599619390347628928,-2
599619390355314816,4
599619390363000704,14
599619390370686592,19
599619390378372480,26
599619390386058368,33
599619390393744128,36
599619390401430016,45
599619390409115904,55
599619390416801792,60
599619390424487680,67
599619390432173454,77
599619390439859072,84
599619390447544704,91
599619390455230336,101
599619390462916096,106
599619390470601728,108
599619390478287360,108
599619390485972992,106
599619390493658624,101
599619390501344384,94
599619390509030016,82
599619390516715648,62
599619390524401280,36
599619390532087040,7
599619390539772672,-14
599619390547458304,-31
599619390555143936,-45
599619390562829568,-50
599619390570515328,-53
599619390578200960,-55
599619390585886592,-53
599619390593572224,-48
599619390601257856,-45
599619390608943616,-41
599619390616629248,-36
599619390624314880,-33
599619390632000512,-29
599619390639686144,-24
599619390647371904,-21
599619390655057536,-16
599619390662743168,-12
599619390670428800,-12
599619390678114432,-9
599619390685800192,-7
599619390693485824,-4
599619390701171456,-4
599619390708857088,-2
599619390716542848,-2
599619390724228480,-2
599619390731914112,-4
599619390739599744,-2
599619390747285376,0
599619390754971136,2
599619390762656768,2
599619390770342400,0
599619390778028032,0
599619390785713664,2
599619390793399424,4
599619390801085056,4
599619390808770688,2
599619390816456320,0
599619390824141952,-2
599619390831827712,-9
599619390839513344,-16
599619390847198976,-2
599619390854884608,41
599619390862570240,67
599619390870256000,60
599619390877941632,55
599619390885627264,38
599619390893312896,12
599619390900998656,4
599619390908684288,14
599619390916369920,14
599619390924055552,9
599619390931741184,12
599619390939426944,14
599619390947112576,14
599619390954798208,9
599619390962483840,-43
599619390970169472,-188
599619390977855232,-234
599619390985540864,101
599619390993226540,705
599619391000912384,995
599619391008598272,553
599619391016284288,-116
599619391023970176,-282
599619391031656192,-154
599619391039342080,-106
599619391047027968,-29
599619391054713984,31
599619391062399872,-4
599619391070085760,-12
599619391077771776,24
599619391085457664,21
599619391093143680,14
599619391100829568,29
599619391108515456,36
599619391116201472,38
599619391123887360,41
599619391131573376,48
599619391139259264,58
599619391146945152,65
599619391154631168,70
599619391162317056,77
599619391170002944,87
599619391177688960,96
599619391185374848,103
599619391193060864,113
599619391200746752,120
599619391208432640,123
599619391216118656,125
599619391223804544,125
599619391231490560,125
599619391239176448,118
599619391246862336,111
599619391254548352,94
599619391262234240,65
599619391269920256,31
599619391277606144,0
599619391285292032,-19
599619391292978048,-31
599619391300663936,-41
599619391308349824,-50
599619391316035840,-50
599619391323721728,-50
599619391331407744,-45
599619391339093632,-41
599619391346779520,-36
599619391354465536,-31
599619391362151424,-26
599619391369837440,-21
599619391377523328,-16
599619391385209216,-12
599619391392895232,-9
599619391400581120,-4
599619391408267008,-2
599619391415953024,2
599619391423638912,4
599619391431324928,4
599619391439010816,4
599619391446696704,4
599619391454382720,7
599619391462068608,9
599619391469754624,9
599619391477440512,9
599619391485126400,9
599619391492812416,9
599619391500498304,12
599619391508184192,9
599619391515870208,12
599619391523556096,16
599619391531242112,16
599619391538928000,14
599619391546613888,16
599619391554299970,16
599619391561985664,16
599619391569671296,14
599619391577356800,9
599619391585042432,2
599619391592728064,-2
599619391600413568,0
599619391608099200,31
599619391615784832,72
599619391623470336,74
599619391631155968,70
599619391638841600,72
599619391646527104,45
599619391654212736,19
599619391661898368,21
599619391669583872,29
599619391677269504,24
599619391684955136,21
599619391692640640,26
599619391700326272,26
599619391708011904,24
599619391715697408,9
599619391723383040,-82
599619391731068672,-229
599619391738754176,-166
599619391746439808,309
599619391754125440,911
599619391761810944,998
599619391769496576,393
599619391777182208,-186
599619391784867712,-229
599619391792553344,-106
599619391800238976,-67
599619391807924480,-9
599619391815610112,7
599619391823295744,-21
599619391830981248,-9
599619391838666880,12
599619391846352512,7
599619391854038016,9
599619391861723648,19
599619391869409280,24
599619391877094784,26
599619391884780416,33
599619391892466048,38
599619391900151552,45
599619391907837184,53
599619391915522816,58
599619391923208320,65
599619391930893952,74
599619391938579584,82
599619391946265088,87
599619391953950720,96
599619391961636352,101
599619391969321856,103
599619391977007488,106
599619391984693120,106
599619391992378624,101
599619392000064256,96
599619392007749888,84
599619392015435392,65
599619392023121024,38
599619392030806528,4
599619392038492160,-19
599619392046177792,-33
599619392053863296,-45
599619392061548928,-53
599619392069234560,-55
599619392076920064,-55
599619392084605696,-55
599619392092291328,-53
599619392099976832,-50
599619392107662464,-45
599619392115347965,-43
599619392123033856,-41
599619392130719744,-31
599619392138405632,-26
599619392146091520,-26
599619392153777280,-21
599619392161463168,-16
599619392169149056,-14
599619392176834944,-12
599619392184520832,-7
599619392192206720,-4
599619392199892480,-4
599619392207578368,-2
599619392215264256,-2
599619392222950144,-2
599619392230636032,-2
599619392238321920,0
599619392246007680,0
599619392253693568,2
599619392261379456,0
599619392269065344,2
599619392276751232,4
599619392284437120,4
599619392292123008,4
599619392299808768,7
599619392307494656,7
599619392315180544,4
599619392322866432,7
599619392330552320,9
599619392338238208,7
599619392345923968,9
599619392353609856,9
599619392361295744,9
599619392368981632,9
599619392376667520,12
599619392384353408,12
599619392392039168,12
599619392399725056,7
599619392407410944,2
599619392415096832,-7
599619392422782720,-14
599619392430468608,7
599619392438154496,50
599619392445840256,72
599619392453526144,67
599619392461212032,65
599619392468897920,48
599619392476583808,21
599619392484269696,9
599619392491955456,14
599619392499641344,16
599619392507327232,14
599619392515013120,16
599619392522699008,19
599619392530384896,16
599619392538070656,9
599619392545756544,-60
599619392553442432,-212
599619392561128320,-232
599619392568814208,149
599619392576500096,800
599619392584185856,1123
599619392591871744,688
599619392599557632,-21
599619392607243520,-256
599619392614929408,-132
599619392622615296,-62
599619392630301184,-36
599619392637986944,-21
599619392645672832,-36
599619392653358720,-31
599619392661044608,-12
599619392668730496,-7
599619392676416308,-7
599619392684102144,0
599619392691788032,7
599619392699473920,12
599619392707159808,19
599619392714845568,24
599619392722531456,31
599619392730217344,38
599619392737903232,48
599619392745589120,55
599619392753275008,62
599619392760960768,72
599619392768646656,82
599619392776332544,89
599619392784018432,96
599619392791704320,103
599619392799390208,106
599619392807075968,108
599619392814761856,106
599619392822447744,103
599619392830133632,94
599619392837819520,82
599619392845505408,58
599619392853191296,26
599619392860877056,-2
599619392868562944,-24
599619392876248832,-38
599619392883934720,-50
599619392891620608,-58
599619392899306496,-60
599619392906992256,-58
599619392914678144,-55
599619392922364032,-55
599619392930049920,-50
599619392937735808,-45
599619392945421696,-41
599619392953107456,-38
599619392960793344,-33
599619392968479232,-29
599619392976165120,-24
599619392983851008,-21
599619392991536896,-16
599619392999222784,-12
599619393006908544,-9
599619393014594432,-9
599619393022280320,-7
599619393029966208,-4
599619393037652096,-2
599619393045337984,-2
599619393053023744,-2
599619393060709632,0
599619393068395520,0
599619393076081408,0
599619393083767296,0
599619393091453184,2
599619393099138944,2
599619393106824832,2
599619393114510720,2
599619393122196608,4
599619393129882496,7
599619393137568384,7
599619393145254272,7
599619393152940032,7
599619393160625920,9
599619393168311808,7
599619393175997696,7
599619393183683584,7
599619393191369472,7
599619393199055232,9
599619393206741120,12
599619393214427008,12
599619393222112896,14
599619393229798784,14
599619393237484655,14
599619393245170560,14
599619393252856448,14
599619393260542336,14
599619393268228224,14
599619393275913984,14
599619393283599872,14
599619393291285760,12
599619393298971648,9
599619393306657536,0
599619393314343424,-9
599619393322029184,2
599619393329715072,45
599619393337400960,74
599619393345086848,67
599619393352772736,58
599619393360458624,50
599619393368144384,26
599619393375830272,9
599619393383516160,14
599619393391202048,21
599619393398887936,19
599619393406573824,16
599619393414259712,16
599619393421945472,16
599619393429631360,14
599619393437317248,-38
599619393445003136,-181
599619393452689024,-239
599619393460374912,72
599619393468060672,693
599619393475746560,1068
599619393483432448,715
599619393491118336,4
599619393498804224,-273
599619393506490112,-161
599619393514175872,-87
599619393521861760,-41
599619393529547648,4
599619393537233536,-12
599619393544919424,-21
599619393552605312,0
599619393560291200,2
599619393567976960,2
599619393575662848,14
599619393583348736,16
599619393591034624,19
599619393598720512,29
599619393606406400,36
599619393614092160,38
599619393621778048,45
599619393629463936,55
599619393637149824,62
599619393644835712,70
599619393652521600,77
599619393660207360,87
599619393667893248,96
599619393675579136,106
599619393683265024,113
599619393690950912,118
599619393698636800,118
599619393706322560,118
599619393714008448,118
599619393721694336,111
599619393729380224,99
599619393737066112,79
599619393744752000,50
599619393752437888,16
599619393760123648,-9
599619393767809536,-26
599619393775495424,-38
599619393783181312,-45
599619393790867200,-50
599619393798552998,-55
599619393806238848,-50
599619393813924736,-45
599619393821610624,-45
599619393829296512,-43
599619393836982272,-36
599619393844668160,-33
599619393852354048,-31
599619393860039936,-26
599619393867725824,-19
599619393875411712,-14
599619393883097472,-12
599619393890783360,-7
599619393898469248,-2
599619393906155136,0
599619393913841024,2
599619393921526912,7
599619393929212672,7
599619393936898560,4
599619393944584448,4
599619393952270336,7
599619393959956224,7
599619393967642112,7
599619393975328000,7
599619393983013760,9
599619393990699648,9
599619393998385536,9
599619394006071424,12
599619394013757312,12
599619394021443200,14
599619394029128960,16
599619394036814848,16
599619394044500736,16
599619394052186624,16
599619394059872512,19
599619394067558400,19
599619394075244160,19
599619394082930048,19
599619394090615936,21
599619394098301824,21
599619394105987712,21
599619394113673600,24
599619394121359488,21
599619394129045248,19
599619394136731136,16
599619394144417024,16
599619394152102912,7
599619394159788800,19
599619394167474688,60
599619394175160448,84
599619394182846336,77
599619394190532224,72
599619394198218112,62
599619394205904000,33
599619394213589888,19
599619394221275648,26
599619394228961536,31
599619394236647424,26
599619394244333312,26
599619394252019200,29
599619394259705088,29
599619394267390848,26
599619394275076736,-16
599619394282762624,-149
599619394290448512,-244
599619394298134400,2
599619394305820288,599
599619394313506176,1046
599619394321191936,785
599619394328877824,77
599619394336563712,-263
599619394344249600,-169
599619394351935488,-87
599619394359621341,-43
599619394367307264,9
599619394374993152,-4
599619394382679040,-21
599619394390364928,2
599619394398050688,12
599619394405736576,7
599619394413422464,14
599619394421108352,21
599619394428794240,21
599619394436480128,31
599619394444165888,38
599619394451851776,41
599619394459537664,45
599619394467223552,55
599619394474909440,62
599619394482595328,67
599619394490281088,77
599619394497966976,84
599619394505652864,94
599619394513338752,101
599619394521024640,108
599619394528710528,113
599619394536396416,116
599619394544082176,113
599619394551768064,111
599619394559453952,103
599619394567139840,91
599619394574825728,65
599619394582511616,33
599619394590197376,0
599619394597883264,-21
599619394605569152,-38
599619394613255040,-48
599619394620940928,-53
599619394628626816,-58
599619394636312576,-60
599619394643998464,-58
599619394651684352,-55
599619394659370240,-53
599619394667056128,-50
599619394674742016,-45
599619394682427904,-43
599619394690113664,-38
599619394697799552,-33
599619394705485440,-29
599619394713171328,-24
599619394720857216,-19
599619394728543104,-14
599619394736228864,-12
599619394743914752,-7
599619394751600640,-4
599619394759286528,-4
599619394766972416,-2
599619394774658304,-2
599619394782344064,-2
599619394790029952,0
599619394797715840,0
599619394805401728,0
599619394813087616,0
599619394820773504,0
599619394828459264,0
599619394836145152,2
599619394843831040,2
599619394851516928,4
599619394859202816,4
599619394866888704,4
599619394874574592,4
599619394882260352,4
599619394889946240,7
599619394897632128,7
599619394905318016,4
599619394913003904,7
599619394920689684,9
599619394928375552,9
599619394936061440,9
599619394943747328,12
599619394951433216,12
599619394959118976,12
599619394966804864,12
599619394974490752,14
599619394982176640,12
599619394989862528,14
599619394997548416,14
599619395005234176,14
599619395012920064,14
599619395020605952,16
599619395028291840,16
599619395035977728,16
599619395043663616,16
599619395051349376,16
599619395059035264,16
599619395066721152,16
599619395074407040,16
599619395082092928,16
599619395089778816,16
599619395097464704,19
599619395105150464,16
599619395112836352,12
599619395120522240,9
599619395128208128,0
599619395135894016,-9
599619395143579904,14
599619395151265664,62
599619395158951552,77
599619395166637440,67
599619395174323328,62
599619395182009216,53
599619395189695104,24
599619395197380864,12
599619395205066752,21
599619395212752640,24
599619395220438528,19
599619395228124416,24
599619395235810304,24
599619395243496192,21
599619395251181952,2
599619395258867840,-96
599619395266553728,-246
599619395274239616,-164
599619395281925504,338
599619395289611392,974
599619395297297152,1102
599619395304983040,500
599619395312668928,-132
599619395320354816,-227
599619395328040704,-96
599619395335726592,-58
599619395343412352,-33
599619395351098240,-24
599619395358784128,-38
599619395366470016,-26
599619395374155904,-12
599619395381841792,-12
599619395389527552,-9
599619395397213440,2
599619395404899328,7
599619395412585216,9
599619395420271104,16
599619395427956992,21
599619395435642880,29
599619395443328640,38
599619395451014528,45
599619395458700416,53
599619395466386304,62
599619395474072192,70
599619395481758027,77
599619395489443968,87
599619395497129856,96
599619395504815744,103
599619395512501632,108
599619395520187392,108
599619395527873280,108
599619395535559168,106
599619395543245056,99
599619395550930944,89
599619395558616832,67
599619395566302592,36
599619395573988480,4
599619395581674368,-19
599619395589360256,-33
599619395597046144,-45
599619395604732032,-50
599619395612417792,-53
599619395620103680,-53
599619395627789568,-53
599619395635475456,-53
599619395643161344,-48
599619395650847232,-43
599619395658533120,-41
599619395666218880,-36
599619395673904768,-33
599619395681590656,-29
599619395689276544,-26
599619395696962432,-21
599619395704648320,-19
599619395712334080,-14
599619395720019968,-9
599619395727705856,-7
599619395735391744,-2
599619395743077632,0
599619395750763520,0
599619395758449280,0
599619395766135168,2
599619395773821056,4
599619395781506944,2
599619395789192832,4
599619395796878720,4
599619395804564608,4
599619395812250368,4
599619395819936256,4
599619395827622144,4
599619395835308032,4
599619395842993920,7
599619395850679808,7
599619395858365568,7
599619395866051456,9
599619395873737344,9
599619395881423232,9
599619395889109120,9
599619395896795008,9
599619395904480768,12
599619395912166656,12
599619395919852544,14
599619395927538432,14
599619395935224320,16
599619395942910208,14
599619395950595968,14
599619395958281856,14
599619395965967744,14
599619395973653632,14
599619395981339520,16
599619395989025408,19
599619395996711296,16
599619396004397056,14
599619396012082944,14
599619396019768832,14
599619396027454720,16
599619396035140608,19
599619396042826370,14
599619396050511872,12
599619396058197376,9
599619396065882880,2
599619396073568384,-7
599619396081253888,4
599619396088939520,48
599619396096625024,72
599619396104310528,65
599619396111996032,60
599619396119681536,53
599619396127367040,29
599619396135052544,12
599619396142738048,16
599619396150423680,21
599619396158109184,19
599619396165794688,19
599619396173480192,21
599619396181165696,21
599619396188851200,14
599619396196536704,-43
599619396204222208,-188
599619396211907840,-232
599619396219593344,111
599619396227278848,732
599619396234964352,1041
599619396242649856,618
599619396250335360,-60
599619396258020864,-265
599619396265706368,-145
599619396273391872,-89
599619396281077504,-33
599619396288763008,16
599619396296448512,-12
599619396304134016,-19
599619396311819520,9
599619396319505024,9
599619396327190528,4
599619396334876032,19
599619396342561664,26
599619396350247168,26
599619396357932672,33
599619396365618176,43
599619396373303680,45
599619396380989184,53
599619396388674688,65
599619396396360192,72
599619396404045824,79
599619396411731328,89
599619396419416832,99
599619396427102336,108
599619396434787840,118
599619396442473344,125
599619396450158848,132
599619396457844352,137
599619396465529856,137
599619396473215488,135
599619396480900992,130
599619396488586496,118
599619396496272000,89
599619396503957504,55
599619396511643008,19
599619396519328512,-9
599619396527014016,-31
599619396534699648,-41
599619396542385152,-50
599619396550070656,-55
599619396557756160,-55
599619396565441664,-58
599619396573127168,-55
599619396580812672,-50
599619396588498176,-45
599619396596183808,-43
599619396603869286,-36
599619396611555072,-33
599619396619240832,-29
599619396626926720,-24
599619396634612480,-19
599619396642298240,-14
599619396649984000,-9
599619396657669888,-7
599619396665355648,-4
599619396673041408,0
599619396680727296,2
599619396688413056,4
599619396696098816,4
599619396703784704,2
599619396711470464,4
599619396719156224,7
599619396726841984,4
599619396734527872,7
599619396742213632,9
599619396749899392,9
599619396757585280,9
599619396765271040,9
599619396772956800,12
599619396780642688,12
599619396788328448,12
599619396796014208,12
599619396803699968,12
599619396811385856,12
599619396819071616,12
599619396826757376,14
599619396834443264,14
599619396842129024,12
599619396849814784,12
599619396857500672,16
599619396865186432,16
599619396872872192,16
599619396880557952,19
599619396888243840,19
599619396895929600,19
599619396903615360,19
599619396911301248,19
599619396918987008,16
599619396926672768,14
599619396934358528,9
599619396942044416,0
599619396949730176,-4
599619396957415936,26
599619396965101824,72
599619396972787584,77
599619396980473344,67
599619396988159232,62
599619396995844992,43
599619397003530752,16
599619397011216512,16
599619397018902400,21
599619397026588160,19
599619397034273920,16
599619397041959808,19
599619397049645568,21
599619397057331328,21
599619397065017216,7
599619397072702976,-77
599619397080388736,-224
599619397088074496,-198
599619397095760384,234
599619397103446144,862
599619397111131904,1063
599619397118817792,536
599619397126503552,-116
599619397134189312,-248
599619397141875072,-120
599619397149560960,-65
599619397157246720,-26
599619397164932542,-7
599619397172618368,-31
599619397180304256,-24
599619397187990144,-2
599619397195676032,-4
599619397203361792,-2
599619397211047680,9
599619397218733568,14
599619397226419456,16
599619397234105344,21
599619397241791232,29
599619397249476992,36
599619397257162880,43
599619397264848768,50
599619397272534656,60
599619397280220544,67
599619397287906432,77
599619397295592192,87
599619397303278080,99
599619397310963968,111
599619397318649856,120
599619397326335744,125
599619397334021632,130
599619397341707520,130
599619397349393280,128
599619397357079168,118
599619397364765056,99
599619397372450944,70
599619397380136832,33
599619397387822720,-2
599619397395508480,-29
599619397403194368,-43
599619397410880256,-55
599619397418566144,-62
599619397426252032,-62
599619397433937920,-60
599619397441623680,-62
599619397449309568,-60
599619397456995456,-58
599619397464681344,-53
599619397472367232,-48
599619397480053120,-45
599619397487739008,-41
599619397495424768,-36
599619397503110656,-33
599619397510796544,-29
599619397518482432,-24
599619397526168320,-19
599619397533854208,-16
599619397541539968,-12
599619397549225856,-9
599619397556911744,-7
599619397564597632,-4
599619397572283520,-4
599619397579969408,-2
599619397587655168,0
599619397595341056,0
599619397603026944,-2
599619397610712832,0
599619397618398720,0
599619397626084608,0
599619397633770368,0
599619397641456256,2
599619397649142144,4
599619397656828032,4
599619397664513920,2
599619397672199808,4
599619397679885696,4
599619397687571456,4
599619397695257344,4
599619397702943232,7
599619397710629120,7
599619397718315008,7
599619397726000885,9
599619397733686784,9
599619397741372672,12
599619397749058560,12
599619397756744448,12
599619397764430208,12
599619397772116096,14
599619397779801984,14
599619397787487872,14
599619397795173760,16
599619397802859648,16
599619397810545408,14
599619397818231296,14
599619397825917184,16
599619397833603072,16
599619397841288960,16
599619397848974848,16
599619397856660608,16
599619397864346496,16
599619397872032384,19
599619397879718272,19
599619397887404160,19
599619397895090048,19
599619397902775936,19
599619397910461696,21
599619397918147584,21
599619397925833472,21
599619397933519360,21
599619397941205248,16
599619397948891136,14
599619397956576896,9
599619397964262784,0
599619397971948672,-2
599619397979634560,31
599619397987320448,72
599619397995006336,77
599619398002692096,67
599619398010377984,65
599619398018063872,45
599619398025749760,19
599619398033435648,14
599619398041121536,24
599619398048807424,24
599619398056493184,19
599619398064179072,21
599619398071864960,21
599619398079550848,19
599619398087236736,-12
599619398094922624,-135
599619398102608384,-261
599619398110294272,-91
599619398117980160,485
599619398125666048,1061
599619398133351936,1005
599619398141037824,321
599619398148723584,-207
599619398156409472,-205
599619398164095360,-84
599619398171781248,-55
599619398179467136,-29
599619398187153024,-24
599619398194838784,-38
599619398202524672,-24
599619398210210560,-9
599619398217896448,-9
599619398225582336,-4
599619398233268224,2
599619398240954112,4
599619398248639872,12
599619398256325760,19
599619398264011648,24
599619398271697536,33
599619398279383424,43
599619398287069228,50
599619398294755072,55
599619398302440960,67
599619398310126848,74
599619398317812736,84
599619398325498496,99
599619398333184384,111
599619398340870272,116
599619398348556160,120
599619398356242048,123
599619398363927936,123
599619398371613696,120
599619398379299584,116
599619398386985472,101
599619398394671360,74
599619398402357248,38
599619398410043136,7
599619398417728896,-19
599619398425414784,-38
599619398433100672,-50
599619398440786560,-53
599619398448472448,-58
599619398456158336,-60
599619398463844224,-60
599619398471529984,-55
599619398479215872,-53
599619398486901760,-50
599619398494587648,-45
599619398502273536,-43
599619398509959424,-41
599619398517645184,-36
599619398525331072,-31
599619398533016960,-29
599619398540702848,-21
599619398548388736,-16
599619398556074624,-14
599619398563760384,-12
599619398571446272,-7
599619398579132160,-7
599619398586818048,-4
599619398594503936,-2
599619398602189824,-2
599619398609875712,0
599619398617561472,0
599619398625247360,2
599619398632933248,2
599619398640619136,0
599619398648305024,0
599619398655990912,2
599619398663676672,4
599619398671362560,4
599619398679048448,4
599619398686734336,7
599619398694420224,7
599619398702106112,4
599619398709791872,7
599619398717477760,9
599619398725163648,7
599619398732849536,7
599619398740535424,7
599619398748221312,9
599619398755907072,12
599619398763592960,12
599619398771278848,12
599619398778964736,12
599619398786650624,14
599619398794336512,14
599619398802022400,14
599619398809708160,14
599619398817394048,14
599619398825079936,16
599619398832765824,16
599619398840451712,16
599619398848137571,19
599619398855823488,19
599619398863509376,19
599619398871195264,19
599619398878881152,14
599619398886566912,14
599619398894252800,12
599619398901938688,2
599619398909624576,2
599619398917310464,29
599619398924996352,67
599619398932682112,74
599619398940368000,65
599619398948053888,60
599619398955739776,43
599619398963425664,21
599619398971111552,14
599619398978797312,19
599619398986483200,21
599619398994169088,21
599619399001854976,24
599619399009540864,24
599619399017226752,21
599619399024912640,7
599619399032598400,-77
599619399040284288,-219
599619399047970176,-164
599619399055656064,294
599619399063341952,870
599619399071027840,932
599619399078713600,326
599619399086399488,-217
599619399094085376,-227
599619399101771264,-113
599619399109457152,-79
599619399117143040,4
599619399124828800,33
599619399132514688,-9
599619399140200576,2
599619399147886464,29
599619399155572352,21
599619399163258240,21
599619399170944128,33
599619399178629888,38
599619399186315776,41
599619399194001664,48
599619399201687552,55
599619399209373440,60
599619399217059328,67
599619399224745088,77
599619399232430976,87
599619399240116864,94
599619399247802752,106
599619399255488640,118
599619399263174528,128
599619399270860288,137
599619399278546176,149
599619399286232064,157
599619399293917952,164
599619399301603840,164
599619399309289728,159
599619399316975488,149
599619399324661376,130
599619399332347264,99
599619399340033152,58
599619399347719040,16
599619399355404928,-9
599619399363090816,-29
599619399370776576,-43
599619399378462464,-50
599619399386148352,-50
599619399393834240,-55
599619399401520128,-55
599619399409205914,-53
599619399416891776,-48
599619399424577664,-45
599619399432263680,-41
599619399439949568,-36
599619399447635584,-31
599619399455321472,-29
599619399463007360,-24
599619399470693376,-19
599619399478379264,-16
599619399486065152,-12
599619399493751168,-7
599619399501437056,-4
599619399509123072,-2
599619399516808960,0
599619399524494848,2
599619399532180864,4
599619399539866752,4
599619399547552768,4
599619399555238656,4
599619399562924544,7
599619399570610560,4
599619399578296448,4
599619399585982336,4
599619399593668352,7
599619399601354240,7
599619399609040256,9
599619399616726144,9
599619399624412032,7
599619399632098048,9
599619399639783936,9
599619399647469952,9
599619399655155840,9
599619399662841728,9
599619399670527744,7
599619399678213632,9
599619399685899648,12
599619399693585536,12
599619399701271424,12
599619399708957440,14
599619399716643328,14
599619399724329216,14
599619399732015232,14
599619399739701120,16
599619399747387136,16
599619399755073024,16
599619399762758912,16
599619399770444928,16
599619399778130816,16
599619399785816832,16
599619399793502720,16
599619399801188608,19
599619399808874624,19
599619399816560512,19
599619399824246400,19
599619399831932416,19
599619399839618304,19
599619399847304320,16
599619399854990208,12
599619399862676096,9
599619399870362112,-2
599619399878048000,-2
599619399885734016,36
599619399893419904,77
599619399901105792,74
599619399908791808,62
599619399916477696,60
599619399924163584,38
599619399931849600,14
599619399939535488,16
599619399947221504,24
599619399954907392,21
599619399962593280,19
599619399970279348,21
599619399977965184,21
599619399985651072,19
599619399993337088,-9
599619400001022976,-128
599619400008708992,-256
599619400016394880,-99
599619400024080768,461
599619400031766784,1029
599619400039452672,988
599619400047138560,321
599619400054824576,-203
599619400062510464,-205
599619400070196480,-82
599619400077882368,-48
599619400085568256,-24
599619400093254272,-24
599619400100940160,-33
599619400108626176,-19
599619400116312064,-7
599619400123997952,-9
599619400131683968,-2
599619400139369856,7
599619400147055744,12
599619400154741760,14
599619400162427648,21
599619400170113664,29
599619400177799552,33
599619400185485440,43
599619400193171456,53
599619400200857344,58
599619400208543360,67
599619400216229248,79
599619400223915136,91
599619400231601152,101
599619400239287040,113
599619400246973056,123
599619400254658944,130
599619400262344832,135
599619400270030848,137
599619400277716736,132
599619400285402624,125
599619400293088640,108
599619400300774528,77
599619400308460544,38
599619400316146432,2
599619400323832320,-24
599619400331518336,-41
599619400339204224,-53
599619400346890240,-62
599619400354576128,-62
599619400362262016,-62
599619400369948032,-60
599619400377633920,-58
599619400385319808,-58
599619400393005824,-53
599619400400691712,-48
599619400408377728,-43
599619400416063616,-41
599619400423749504,-38
599619400431435520,-33
599619400439121408,-31
599619400446807424,-26
599619400454493312,-21
599619400462179200,-16
599619400469865216,-14
599619400477551104,-12
599619400485236992,-7
599619400492923008,-4
599619400500608896,-2
599619400508294912,0
599619400515980800,0
599619400523666688,2
599619400531352778,2
599619400539038976,2
599619400546725120,2
599619400554411264,2
599619400562097408,4
599619400569783552,4
599619400577469696,4
599619400585155840,4
599619400592841984,7
599619400600528128,4
599619400608214272,4
599619400615900416,7
599619400623586560,7
599619400631272704,7
599619400638958848,7
599619400646644992,9
599619400654331136,12
599619400662017280,12
599619400669703424,12
599619400677389568,12
599619400685075712,12
599619400692761856,12
599619400700448000,12
599619400708134144,12
599619400715820288,12
599619400723506432,12
599619400731192576,12
599619400738878720,14
599619400746564992,14
599619400754251136,14
599619400761937280,14
599619400769623424,14
599619400777309568,14
599619400784995712,16
599619400792681856,16
599619400800368000,16
599619400808054144,16
599619400815740288,16
599619400823426432,16
599619400831112576,16
599619400838798720,16
599619400846484864,19
599619400854171008,19
599619400861857152,16
599619400869543296,19
599619400877229440,19
599619400884915584,16
599619400892601728,12
599619400900287872,12
599619400907974016,2
599619400915660160,-7
599619400923346304,14
599619400931032448,62
599619400938718592,77
599619400946404736,65
599619400954090880,60
599619400961777024,53
599619400969463168,26
599619400977149312,12
599619400984835456,19
599619400992521600,21
599619401000207744,16
599619401007893888,19
599619401015580032,21
599619401023266176,21
599619401030952320,9
599619401038638464,-67
599619401046324608,-217
599619401054010752,-212
599619401061696896,203
599619401069383040,850
599619401077069184,1121
599619401084755328,640
599619401092441465,-55
599619401100127360,-253
599619401107813248,-128
599619401115499136,-65
599619401123185024,-33
599619401130870784,-14
599619401138556672,-33
599619401146242560,-31
599619401153928448,-9
599619401161614336,-4
599619401169300224,-4
599619401176985984,4
599619401184671872,9
599619401192357760,14
599619401200043648,19
599619401207729536,26
599619401215415424,33
599619401223101184,43
599619401230787072,50
599619401238472960,58
599619401246158848,67
599619401253844736,79
599619401261530624,89
599619401269216512,99
599619401276902272,111
599619401284588160,120
599619401292274048,132
599619401299959936,142
599619401307645824,145
599619401315331712,142
599619401323017472,137
599619401330703360,125
599619401338389248,103
599619401346075136,67
599619401353761024,29
599619401361446912,-4
599619401369132672,-29
599619401376818560,-43
599619401384504448,-53
599619401392190336,-60
599619401399876224,-60
599619401407562112,-60
599619401415248000,-62
599619401422933760,-60
599619401430619648,-53
599619401438305536,-50
599619401445991424,-48
599619401453677312,-43
599619401461363200,-38
599619401469048960,-33
599619401476734848,-29
599619401484420736,-24
599619401492106624,-24
599619401499792512,-19
599619401507478400,-14
599619401515164160,-12
599619401522850048,-9
599619401530535936,-4
599619401538221824,-2
599619401545907712,0
599619401553593600,0
599619401561279360,0
599619401568965248,2
599619401576651136,4
599619401584337024,4
599619401592022912,2
599619401599708800,2
599619401607394688,2
599619401615080448,7
599619401622766336,7
599619401630452224,7
599619401638138112,7
599619401645824000,9
599619401653509808,7
599619401661195648,7
599619401668881536,9
599619401676567424,9
599619401684253312,9
599619401691939072,12
599619401699624960,12
599619401707310848,9
599619401714996736,9
599619401722682624,12
599619401730368512,12
599619401738054272,12
599619401745740160,14
599619401753426048,14
599619401761111936,14
599619401768797824,14
599619401776483712,16
599619401784169472,14
599619401791855360,12
599619401799541248,9
599619401807227136,9
599619401814913024,0
599619401822598912,4
599619401830284800,43
599619401837970560,74
599619401845656448,70
599619401853342336,62
599619401861028224,53
599619401868714112,31
599619401876400000,16
599619401884085760,19
599619401891771648,24
599619401899457536,19
599619401907143424,16
599619401914829312,21
599619401922515200,21
599619401930200960,19
599619401937886848,-2
599619401945572736,-103
599619401953258624,-232
599619401960944512,-101
599619401968630400,413
599619401976316288,923
599619401984002048,824
599619401991687936,159
599619401999373824,-270
599619402007059712,-203
599619402014745600,-108
599619402022431488,-67
599619402030117248,19
599619402037803136,26
599619402045489024,-9
599619402053174912,12
599619402060860800,31
599619402068546688,19
599619402076232448,26
599619402083918336,38
599619402091604224,41
599619402099290112,45
599619402106976000,53
599619402114661888,55
599619402122347648,62
599619402130033536,72
599619402137719424,79
599619402145405312,89
599619402153091200,99
599619402160777088,111
599619402168462976,123
599619402176148736,137
599619402183834624,149
599619402191520512,159
599619402199206400,166
599619402206892288,174
599619402214578151,174
599619402222264064,171
599619402229949952,161
599619402237635840,135
599619402245321728,96
599619402253007488,50
599619402260693376,7
599619402268379264,-19
599619402276065152,-36
599619402283751040,-50
599619402291436928,-58
599619402299122688,-60
599619402306808576,-58
599619402314494464,-58
599619402322180352,-58
599619402329866240,-50
599619402337552128,-48
599619402345237888,-48
599619402352923776,-41
599619402360609664,-33
599619402368295552,-29
599619402375981440,-26
599619402383667328,-24
599619402391353216,-16
599619402399038976,-14
599619402406724864,-9
599619402414410752,-4
599619402422096640,-4
599619402429782528,-2
599619402437468416,0
599619402445154176,4
599619402452840064,4
599619402460525952,4
599619402468211840,4
599619402475897728,4
599619402483583616,4
599619402491269376,4
599619402498955264,4
599619402506641152,7
599619402514327040,7
599619402522012928,7
599619402529698816,9
599619402537384704,9
599619402545070464,9
599619402552756352,9
599619402560442240,9
599619402568128128,9
599619402575814016,12
599619402583499904,12
599619402591185664,12
599619402598871552,12
599619402606557440,12
599619402614243328,14
599619402621929216,14
599619402629615104,14
599619402637300864,16
599619402644986752,16
599619402652672640,14
599619402660358528,14
599619402668044416,16
599619402675730304,14
599619402683416064,12
599619402691101952,9
599619402698787840,2
599619402706473728,-9
599619402714159616,4
599619402721845504,50
599619402729531392,74
599619402737217152,65
599619402744903040,60
599619402752588928,50
599619402760274816,24
599619402767960704,7
599619402775646494,14
599619402783332352,16
599619402791018240,12
599619402798704128,14
599619402806390016,19
599619402814075776,16
599619402821761664,16
599619402829447552,-14
599619402837133440,-132
599619402844819328,-251
599619402852505216,-74
599619402860190976,483
599619402867876864,1012
599619402875562752,911
599619402883248640,229
599619402890934528,-236
599619402898620416,-195
599619402906306176,-84
599619402913992064,-53
599619402921677952,-14
599619402929363840,-19
599619402937049728,-36
599619402944735616,-16
599619402952421504,-4
599619402960107264,-4
599619402967793152,2
599619402975479040,9
599619402983164928,12
599619402990850816,16
599619402998536704,24
599619403006222464,31
599619403013908352,36
599619403021594240,43
599619403029280128,50
599619403036966016,58
599619403044651904,70
599619403052337664,82
599619403060023552,91
599619403067709440,103
599619403075395328,116
599619403083081216,128
599619403090767104,137
599619403098452992,142
599619403106138752,142
599619403113824640,140
599619403121510528,130
599619403129196416,108
599619403136882304,72
599619403144568192,31
599619403152253952,-4
599619403159939840,-29
599619403167625728,-45
599619403175311616,-58
599619403182997504,-62
599619403190683392,-65
599619403198369152,-62
599619403206055040,-60
599619403213740928,-60
599619403221426816,-58
599619403229112704,-53
599619403236798592,-50
599619403244484480,-45
599619403252170240,-45
599619403259856128,-41
599619403267542016,-36
599619403275227904,-31
599619403282913792,-29
599619403290599680,-24
599619403298285440,-19
599619403305971328,-16
599619403313657216,-12
599619403321343104,-9
599619403329028992,-7
599619403336714841,-4
599619403344400768,-2
599619403352086656,0
599619403359772544,0
599619403367458432,0
599619403375144192,2
599619403382830080,2
599619403390515968,2
599619403398201856,2
599619403405887744,2
599619403413573632,2
599619403421259392,2
599619403428945280,4
599619403436631168,4
599619403444317056,7
599619403452002944,7
599619403459688832,7
599619403467374592,9
599619403475060480,9
599619403482746368,9
599619403490432256,9
599619403498118144,9
599619403505804032,9
599619403513489920,9
599619403521175680,12
599619403528861568,14
599619403536547456,14
599619403544233344,14
599619403551919232,14
599619403559605120,14
599619403567290880,14
599619403574976768,14
599619403582662656,14
599619403590348544,14
599619403598034432,12
599619403605720320,14
599619403613406080,16
599619403621091968,16
599619403628777856,14
599619403636463744,16
599619403644149632,16
599619403651835520,16
599619403659521408,16
599619403667207168,19
599619403674893056,19
599619403682578944,19
599619403690264832,19
599619403697950720,19
599619403705636608,19
599619403713322368,16
599619403721008256,16
599619403728694144,19
599619403736380032,19
599619403744065920,19
599619403751751808,19
599619403759437568,19
599619403767123456,19
599619403774809344,19
599619403782495232,14
599619403790181120,12
599619403797867008,2
599619403805552768,-9
599619403813238656,0
599619403820924544,38
599619403828610432,72
599619403836296320,72
599619403843982208,60
599619403851668096,50
599619403859353856,31
599619403867039744,9
599619403874725632,16
599619403882411520,24
599619403890097408,19
599619403897783184,16
599619403905469056,21
599619403913154944,24
599619403920840832,16
599619403928526720,-38
599619403936212480,-181
599619403943898368,-246
599619403951584256,55
599619403959270144,691
599619403966956032,1126
599619403974641920,829
599619403982327680,103
599619403990013568,-246
599619403997699456,-159
599619404005385344,-74
599619404013071232,-50
599619404020757120,-21
599619404028442880,-24
599619404036128768,-31
599619404043814656,-14
599619404051500544,-4
599619404059186432,-4
599619404066872320,2
599619404074558208,9
599619404082243968,12
599619404089929856,16
599619404097615744,24
599619404105301632,33
599619404112987520,41
599619404120673408,45
599619404128359168,50
599619404136045056,58
599619404143730944,67
599619404151416832,79
599619404159102720,87
599619404166788608,99
599619404174474368,111
599619404182160256,125
599619404189846144,132
599619404197532032,132
599619404205217920,135
599619404212903808,137
599619404220589696,128
599619404228275456,111
599619404235961344,84
599619404243647232,45
599619404251333120,4
599619404259019008,-21
599619404266704896,-36
599619404274390656,-48
599619404282076544,-60
599619404289762432,-65
599619404297448320,-65
599619404305134208,-67
599619404312820096,-67
599619404320505856,-60
599619404328191744,-53
599619404335877632,-50
599619404343563520,-43
599619404351249408,-38
599619404358935296,-36
599619404366621056,-33
599619404374306944,-24
599619404381992832,-19
599619404389678720,-24
599619404397364608,-21
599619404405050496,-9
599619404412736384,-9
599619404420422144,-12
599619404428108032,-7
599619404435793920,0
599619404443479808,2
599619404451165696,4
599619404458851527,7
599619404466537472,4
599619404474223360,7
599619404481909248,12
599619404489595136,9
599619404497280896,7
599619404504966784,4
599619404512652672,7
599619404520338560,12
599619404528024448,12
599619404535710336,7
599619404543396096,9
599619404551081984,12
599619404558767872,12
599619404566453760,14
599619404574139648,12
599619404581825536,12
599619404589511296,14
599619404597197184,16
599619404604883072,16
599619404612568960,19
599619404620254848,19
599619404627940736,19
599619404635626624,16
599619404643312384,19
599619404650998272,21
599619404658684160,21
599619404666370048,19
599619404674055936,19
599619404681741824,21
599619404689427584,24
599619404697113472,26
599619404704799360,24
599619404712485248,26
599619404720171136,26
599619404727857024,26
599619404735542784,26
599619404743228672,26
599619404750914560,26
599619404758600448,26
599619404766286336,26
599619404773972224,21
599619404781658112,12
599619404789343872,4
599619404797029760,14
599619404804715648,50
599619404812401536,79
599619404820087424,77
599619404827773312,62
599619404835459072,53
599619404843144960,36
599619404850830848,21
599619404858516736,24
599619404866202624,31
599619404873888512,29
599619404881574272,29
599619404889260160,29
599619404896946048,29
599619404904631936,26
599619404912317824,-12
599619404920003712,-142
599619404927689472,-239
599619404935375360,-2
599619404943061248,587
599619404950747136,1034
599619404958433024,792
599619404966118912,94
599619404973804800,-253
599619404981490560,-166
599619404989176448,-89
599619404996862336,-45
599619405004548224,16
599619405012234112,4
599619405019919870,-19
599619405027605632,4
599619405035291392,16
599619405042977280,12
599619405050663040,21
599619405058348800,29
599619405066034560,29
599619405073720448,33
599619405081406208,43
599619405089091968,48
599619405096777856,53
599619405104463616,60
599619405112149376,70
599619405119835264,74
599619405127521024,84
599619405135206784,94
599619405142892544,106
599619405150578432,118
599619405158264192,130
599619405165949952,142
599619405173635840,149
599619405181321600,149
599619405189007360,149
599619405196693248,149
599619405204379008,140
599619405212064768,118
599619405219750528,82
599619405227436416,41
599619405235122176,4
599619405242807936,-21
599619405250493824,-41
599619405258179584,-50
599619405265865344,-55
599619405273551232,-58
599619405281236992,-58
599619405288922752,-55
599619405296608512,-50
599619405304294400,-48
599619405311980160,-48
599619405319665920,-41
599619405327351808,-36
599619405335037568,-31
599619405342723328,-19
599619405350409088,-7
599619405358094976,-7
599619405365780736,-2
599619405373466496,7
599619405381152384,7
599619405388838144,9
599619405396523904,14
599619405404209792,19
599619405411895552,19
599619405419581312,16
599619405427267072,16
599619405434952960,19
599619405442638720,24
599619405450324480,29
599619405458010368,21
599619405465696128,19
599619405473381888,29
599619405481067776,38
599619405488753536,38
599619405496439296,31
599619405504125056,16
599619405511810944,7
599619405519496704,19
599619405527182464,36
599619405534868352,31
599619405542554112,24
599619405550239872,19
599619405557925760,9
599619405565611520,-2
599619405573297280,-7
599619405580983130,-7
599619405588668672,-4
599619405596354176,-9
599619405604039680,-16
599619405611725184,-19
599619405619410688,-21
599619405627096320,-24
599619405634781824,-29
599619405642467328,-31
599619405650152832,-36
599619405657838336,-33
599619405665523840,-31
599619405673209344,-31
599619405680894848,-26
599619405688580480,-29
599619405696265984,-41
599619405703951488,-24
599619405711636992,2
599619405719322496,-4
599619405727008000,-12
599619405734693504,2
599619405742379008,4
599619405750064640,4
599619405757750144,12
599619405765435648,12
599619405773121152,12
599619405780806656,16
599619405788492160,12
599619405796177664,-2
599619405803863168,-7
599619405811548672,26
599619405819234304,72
599619405826919808,94
599619405834605312,84
599619405842290816,77
599619405849976320,67
599619405857661824,43
599619405865347328,33
599619405873032832,48
599619405880718464,55
599619405888403968,53
599619405896089472,55
599619405903774976,58
599619405911460480,55
599619405919145984,43
599619405926831488,-36
599619405934516992,-198
599619405942202496,-203
599619405949888128,222
599619405957573632,932
599619405965259136,1300
599619405972944640,843
599619405980630144,67
599619405988315648,-207
599619405996001152,-96
599619406003686656,-41
599619406011372288,-29
599619406019057792,-9
599619406026743296,-19
599619406034428800,-19
599619406042114304,2
599619406049799808,7
599619406057485312,7
599619406065170816,14
599619406072856448,21
599619406080541952,29
599619406088227456,33
599619406095912960,36
599619406103598464,41
599619406111283968,50
599619406118969472,60
599619406126654976,67
599619406134340480,77
599619406142026038,87
599619406149712256,94
599619406157398528,103
599619406165084800,113
599619406172771072,125
599619406180457344,142
599619406188143744,152
599619406195830016,157
599619406203516288,157
599619406211202560,154
599619406218888832,145
599619406226575104,120
599619406234261376,84
599619406241947648,43
599619406249633920,9
599619406257320320,-16
599619406265006592,-41
599619406272692864,-53
599619406280379136,-53
599619406288065408,-53
599619406295751680,-60
599619406303437952,-60
599619406311124224,-55
599619406318810496,-55
599619406326496768,-53
599619406334183168,-48
599619406341869440,-43
599619406349555712,-43
599619406357241984,-38
599619406364928256,-31
599619406372614528,-26
599619406380300800,-24
599619406387987072,-19
599619406395673344,-14
599619406403359744,-14
599619406411046016,-14
599619406418732288,-9
599619406426418560,-2
599619406434104832,-4
599619406441791104,-4
599619406449477376,-4
599619406457163648,-4
599619406464849920,-4
599619406472536320,-4
599619406480222592,-4
599619406487908864,-7
599619406495595136,-9
599619406503281408,-9
599619406510967680,0
599619406518653952,2
599619406526340224,-7
599619406534026496,-4
599619406541712896,0
599619406549399168,-7
599619406557085440,-12
599619406564771712,0
599619406572457984,9
599619406580144256,7
599619406587830528,2
599619406595516800,2
599619406603203072,2
599619406610889344,7
599619406618575744,9
599619406626262016,7
599619406633948288,7
599619406641634560,12
599619406649320832,14
599619406657007104,16
599619406664693376,14
599619406672379648,16
599619406680065920,21
599619406687752320,19
599619406695438592,14
599619406703124903,16
599619406710810752,19
599619406718496640,16
599619406726182528,12
599619406733868416,7
599619406741554176,0
599619406749240064,-4
599619406756925952,24
599619406764611840,67
599619406772297728,70
599619406779983616,55
599619406787669376,50
599619406795355264,33
599619406803041152,7
599619406810727040,0
599619406818412928,7
599619406826098816,7
599619406833784576,2
599619406841470464,4
599619406849156352,4
599619406856842240,4
599619406864528128,0
599619406872214016,-70
599619406879899904,-229
599619406887585664,-246
599619406895271552,149
599619406902957440,814
599619406910643328,1138
599619406918329216,698
599619406926015104,-26
599619406933700864,-277
599619406941386752,-164
599619406949072640,-96
599619406956758528,-55
599619406964444416,-19
599619406972130304,-41
599619406979816064,-48
599619406987501952,-26
599619406995187840,-19
599619407002873728,-19
599619407010559616,-9
599619407018245504,-2
599619407025931392,2
599619407033617152,9
599619407041303040,14
599619407048988928,19
599619407056674816,31
599619407064360704,38
599619407072046592,48
599619407079732352,58
599619407087418240,67
599619407095104128,74
599619407102790016,89
599619407110475904,106
599619407118161792,120
599619407125847552,130
599619407133533440,142
599619407141219328,149
599619407148905216,149
599619407156591104,145
599619407164276992,135
599619407171962752,106
599619407179648640,62
599619407187334528,21
599619407195020416,-12
599619407202706304,-36
599619407210392192,-55
599619407218078080,-65
599619407225763840,-67
599619407233449728,-70
599619407241135616,-67
599619407248821504,-65
599619407256507392,-62
599619407264193246,-62
599619407271879168,-58
599619407279565056,-53
599619407287250944,-53
599619407294936832,-50
599619407302622592,-41
599619407310308480,-36
599619407317994368,-36
599619407325680256,-31
599619407333366144,-24
599619407341052032,-21
599619407348737792,-16
599619407356423680,-14
599619407364109568,-12
599619407371795456,-7
599619407379481344,-4
599619407387167232,-2
599619407394852992,-2
599619407402538880,0
599619407410224768,0
599619407417910656,0
599619407425596544,0
599619407433282432,0
599619407440968320,0
599619407448654080,2
599619407456339968,2
599619407464025856,2
599619407471711744,2
599619407479397632,2
599619407487083520,4
599619407494769280,7
599619407502455168,7
599619407510141056,7
599619407517826944,9
599619407525512832,9
599619407533198720,9
599619407540884480,12
599619407548570368,12
599619407556256256,14
599619407563942144,16
599619407571628032,16
599619407579313920,14
599619407586999808,14
599619407594685568,16
599619407602371456,14
599619407610057344,16
599619407617743232,19
599619407625429120,19
599619407633115008,19
599619407640800768,19
599619407648486656,19
599619407656172544,21
599619407663858432,21
599619407671544320,21
599619407679230208,21
599619407686915968,21
599619407694601856,21
599619407702287744,19
599619407709973632,21
599619407717659520,24
599619407725345408,24
599619407733031168,19
599619407740717056,19
599619407748402944,21
599619407756088832,21
599619407763774720,24
599619407771460608,21
599619407779146496,21
599619407786832256,21
599619407794518144,19
599619407802204032,14
599619407809889920,2
599619407817575808,-9
599619407825261589,4
599619407832947456,50
599619407840633344,82
599619407848319232,74
599619407856005120,62
599619407863690880,55
599619407871376768,31
599619407879062656,14
599619407886748544,19
599619407894434432,26
599619407902120320,21
599619407909806080,21
599619407917491968,26
599619407925177856,26
599619407932863744,19
599619407940549632,-31
599619407948235520,-181
599619407955921280,-263
599619407963607168,29
599619407971293056,688
599619407978978944,1201
599619407986664832,978
599619407994350720,229
599619408002036608,-207
599619408009722368,-159
599619408017408256,-72
599619408025094144,-60
599619408032780032,-38
599619408040465920,-43
599619408048151808,-50
599619408055837568,-33
599619408063523456,-21
599619408071209344,-21
599619408078895232,-12
599619408086581120,-4
599619408094267008,0
599619408101952768,4
599619408109638656,12
599619408117324544,16
599619408125010432,24
599619408132696320,31
599619408140382208,41
599619408148068096,50
599619408155753856,58
599619408163439744,67
599619408171125632,79
599619408178811520,91
599619408186497408,103
599619408194183296,116
599619408201869056,125
599619408209554944,132
599619408217240832,135
599619408224926720,137
599619408232612608,130
599619408240298496,116
599619408247984256,89
599619408255670144,53
599619408263356032,16
599619408271041920,-14
599619408278727808,-36
599619408286413696,-48
599619408294099456,-55
599619408301785344,-58
599619408309471232,-58
599619408317157120,-58
599619408324843008,-55
599619408332528896,-53
599619408340214784,-48
599619408347900544,-45
599619408355586432,-41
599619408363272320,-33
599619408370958208,-31
599619408378644096,-31
599619408386329932,-29
599619408394015872,-21
599619408401701760,-19
599619408409387648,-14
599619408417073536,-9
599619408424759296,-9
599619408432445184,-7
599619408440131072,-2
599619408447816960,0
599619408455502848,0
599619408463188736,2
599619408470874496,4
599619408478560384,4
599619408486246272,4
599619408493932160,7
599619408501618048,9
599619408509303936,9
599619408516989696,9
599619408524675584,9
599619408532361472,9
599619408540047360,9
599619408547733248,9
599619408555419136,12
599619408563105024,12
599619408570790784,12
599619408578476672,12
599619408586162560,14
599619408593848448,14
599619408601534336,16
599619408609220224,16
599619408616905984,16
599619408624591872,16
599619408632277760,19
599619408639963648,19
599619408647649536,19
599619408655335424,19
599619408663021184,19
599619408670707072,19
599619408678392960,19
599619408686078848,19
599619408693764736,19
599619408701450624,19
599619408709136512,19
599619408716822272,19
599619408724508160,21
599619408732194048,24
599619408739879936,24
599619408747565824,21
599619408755251712,24
599619408762937472,26
599619408770623360,24
599619408778309248,21
599619408785995136,26
599619408793681024,29
599619408801366912,29
599619408809052672,29
599619408816738560,29
599619408824424448,26
599619408832110336,26
599619408839796224,29
599619408847482112,26
599619408855167872,26
599619408862853760,29
599619408870539648,29
599619408878225536,29
599619408885911424,29
599619408893597312,29
599619408901283200,29
599619408908968960,26
599619408916654848,21
599619408924340736,14
599619408932026624,7
599619408939712512,9
599619408947398275,38
599619408955084160,79
599619408962770048,91
599619408970455936,79
599619408978141824,72
599619408985827584,60
599619408993513472,38
599619409001199360,33
599619409008885248,43
599619409016571136,43
599619409024257024,41
599619409031942784,43
599619409039628672,41
599619409047314560,38
599619409055000448,24
599619409062686336,-74
599619409070372224,-227
599619409078057984,-152
599619409085743872,352
599619409093429760,981
599619409101115648,1094
599619409108801536,495
599619409116487424,-135
599619409124173312,-234
599619409131859072,-111
599619409139544960,-65
599619409147230848,-14
599619409154916736,7
599619409162602624,-19
599619409170288512,-12
599619409177974272,12
599619409185660160,9
599619409193346048,12
599619409201031936,21
599619409208717824,26
599619409216403712,29
599619409224089472,31
599619409231775360,36
599619409239461248,43
599619409247147136,53
599619409254833024,58
599619409262518912,62
599619409270204800,72
599619409277890560,87
599619409285576448,96
599619409293262336,106
599619409300948224,118
599619409308634112,130
599619409316320000,142
599619409324005760,149
599619409331691648,154
599619409339377536,157
599619409347063424,152
599619409354749312,142
599619409362435200,120
599619409370120960,89
599619409377806848,45
599619409385492736,7
599619409393178624,-16
599619409400864512,-33
599619409408550400,-45
599619409416236160,-50
599619409423922048,-55
599619409431607936,-58
599619409439293824,-55
599619409446979712,-53
599619409454665600,-50
599619409462351488,-45
599619409470037248,-43
599619409477723136,-41
599619409485409024,-36
599619409493094912,-31
599619409500780800,-29
599619409508466618,-24
599619409516152448,-21
599619409523838336,-19
599619409531524224,-14
599619409539210112,-12
599619409546895872,-7
599619409554581760,-2
599619409562267648,-2
599619409569953536,-2
599619409577639424,0
599619409585325312,0
599619409593011072,2
599619409600696960,2
599619409608382848,2
599619409616068736,2
599619409623754624,2
599619409631440512,0
599619409639126272,2
599619409646812160,4
599619409654498048,4
599619409662183936,2
599619409669869824,2
599619409677555712,4
599619409685241600,7
599619409692927360,7
599619409700613248,4
599619409708299136,4
599619409715985024,4
599619409723670912,7
599619409731356800,4
599619409739042560,4
599619409746728448,7
599619409754414336,7
599619409762100224,7
599619409769786112,9
599619409777472000,7
599619409785157760,4
599619409792843648,7
599619409800529536,7
599619409808215424,4
599619409815901312,4
599619409823587200,7
599619409831273088,4
599619409838958848,-2
599619409846644736,0
599619409854330624,0
599619409862016512,-2
599619409869702400,-2
599619409877388288,4
599619409885074048,4
599619409892759936,2
599619409900445824,2
599619409908131712,2
599619409915817600,2
599619409923503488,2
599619409931189248,0
599619409938875136,0
599619409946561024,0
599619409954246912,0
599619409961932800,2
599619409969618688,2
599619409977304576,0
599619409984990336,-2
599619409992676224,-7
599619410000362112,-21
599619410008048000,-21
599619410015733888,14
599619410023419776,58
599619410031105536,65
599619410038791424,50
599619410046477312,41
599619410054163200,24
599619410061849088,2
599619410069534965,2
599619410077220864,9
599619410084906752,9
599619410092592640,9
599619410100278528,12
599619410107964288,12
599619410115650176,12
599619410123336064,-9
599619410131021952,-116
599619410138707840,-263
599619410146393728,-161
599619410154079488,364
599619410161765376,1003
599619410169451264,1121
599619410177137152,522
599619410184823040,-116
599619410192508928,-222
599619410200194688,-103
599619410207880576,-67
599619410215566464,-45
599619410223252352,-33
599619410230938240,-48
599619410238624128,-41
599619410246310016,-21
599619410253995776,-19
599619410261681664,-16
599619410269367552,-7
599619410277053440,0
599619410284739328,4
599619410292425216,9
599619410300110976,16
599619410307796864,24
599619410315482752,31
599619410323168640,36
599619410330854528,43
599619410338540416,55
599619410346226176,65
599619410353912064,74
599619410361597952,87
599619410369283840,99
599619410376969728,111
599619410384655616,123
599619410392341504,135
599619410400027264,137
599619410407713152,137
599619410415399040,137
599619410423084928,128
599619410430770816,103
599619410438456704,70
599619410446142464,29
599619410453828352,-4
599619410461514240,-26
599619410469200128,-41
599619410476886016,-55
599619410484571904,-60
599619410492257664,-60
599619410499943552,-60
599619410507629440,-60
599619410515315328,-58
599619410523001216,-53
599619410530687104,-50
599619410538372864,-48
599619410546058752,-43
599619410553744640,-41
599619410561430528,-38
599619410569116416,-36
599619410576802304,-31
599619410584488192,-26
599619410592173952,-24
599619410599859840,-19
599619410607545728,-16
599619410615231616,-12
599619410622917504,-7
599619410630603308,-4
599619410638289152,-2
599619410645975040,0
599619410653660928,2
599619410661346816,2
599619410669032576,2
599619410676718464,4
599619410684404352,4
599619410692090240,4
599619410699776128,7
599619410707462016,7
599619410715147776,7
599619410722833664,7
599619410730519552,9
599619410738205440,9
599619410745891328,9
599619410753577216,12
599619410761262976,12
599619410768948864,12
599619410776634752,14
599619410784320640,14
599619410792006528,14
599619410799692416,14
599619410807378304,14
599619410815064064,16
599619410822749952,16
599619410830435840,16
599619410838121728,16
599619410845807616,19
599619410853493504,19
599619410861179264,19
599619410868865152,19
599619410876551040,19
599619410884236928,19
599619410891922816,16
599619410899608704,19
599619410907294464,21
599619410914980352,21
599619410922666240,19
599619410930352128,19
599619410938038016,21
599619410945723904,21
599619410953409792,19
599619410961095552,19
599619410968781440,19
599619410976467328,16
599619410984153216,19
599619410991839104,21
599619410999524992,19
599619411007210752,19
599619411014896640,21
599619411022582528,21
599619411030268416,21
599619411037954304,24
599619411045640192,24
599619411053325952,19
599619411061011840,19
599619411068697728,19
599619411076383616,14
599619411084069504,4
599619411091755392,-7
599619411099441152,0
599619411107127040,36
599619411114812928,70
599619411122498816,72
599619411130184704,60
599619411137870592,50
599619411145556480,31
599619411153242240,12
599619411160928128,14
599619411168614016,24
599619411176299904,21
599619411183985792,19
599619411191671651,24
599619411199357568,24
599619411207043456,16
599619411214729344,-31
599619411222415232,-166
599619411230100992,-251
599619411237786880,14
599619411245472768,633
599619411253158656,1109
599619411260844544,879
599619411268530432,154
599619411276216192,-251
599619411283902080,-183
599619411291587968,-89
599619411299273856,-58
599619411306959744,-16
599619411314645632,-29
599619411322331392,-41
599619411330017280,-19
599619411337703168,-7
599619411345389056,-12
599619411353074944,-2
599619411360760832,4
599619411368446720,9
599619411376132480,14
599619411383818368,19
599619411391504256,24
599619411399190144,31
599619411406876032,38
599619411414561920,45
599619411422247680,53
599619411429933568,62
599619411437619456,77
599619411445305344,84
599619411452991232,96
599619411460677120,111
599619411468362880,123
599619411476048768,137
599619411483734656,145
599619411491420544,147
599619411499106432,145
599619411506792320,140
599619411514478208,128
599619411522163968,101
599619411529849856,65
599619411537535744,21
599619411545221632,-9
599619411552907520,-33
599619411560593408,-50
599619411568279168,-58
599619411575965056,-62
599619411583650944,-65
599619411591336832,-62
599619411599022720,-62
599619411606708608,-60
599619411614394368,-55
599619411622080256,-50
599619411629766144,-48
599619411637452032,-43
599619411645137920,-38
599619411652823808,-36
599619411660509568,-33
599619411668195456,-26
599619411675881344,-21
599619411683567232,-19
599619411691253120,-16
599619411698939008,-14
599619411706624896,-9
599619411714310656,-7
599619411721996544,-4
599619411729682432,-2
599619411737368320,0
599619411745054208,0
599619411752739994,2
599619411760425856,2
599619411768111744,2
599619411775797632,4
599619411783483520,7
599619411791169280,7
599619411798855168,7
599619411806541056,7
599619411814226944,7
599619411821912832,9
599619411829598720,9
599619411837284480,12
599619411844970368,12
599619411852656256,14
599619411860342144,14
599619411868028032,14
599619411875713920,14
599619411883399680,14
599619411891085568,16
599619411898771456,19
599619411906457344,19
599619411914143232,19
599619411921829120,21
599619411929515008,21
599619411937200768,21
599619411944886656,21
599619411952572544,21
599619411960258432,24
599619411967944320,21
599619411975630208,21
599619411983315968,24
599619411991001856,24
599619411998687744,24
599619412006373632,24
599619412014059520,26
599619412021745408,26
599619412029431168,24
599619412037117056,24
599619412044802944,24
599619412052488832,26
599619412060174720,26
599619412067860608,24
599619412075546496,24
599619412083232256,21
599619412090918144,14
599619412098604032,2
599619412106289920,2
599619412113975808,36
599619412121661696,74
599619412129347456,84
599619412137033344,70
599619412144719232,60
599619412152405120,43
599619412160091008,19
599619412167776896,21
599619412175462656,31
599619412183148544,26
599619412190834432,24
599619412198520320,26
599619412206206208,26
599619412213892096,24
599619412221577856,9
599619412229263744,-82
599619412236949632,-232
599619412244635520,-171
599619412252321408,306
599619412260007296,942
599619412267693184,1116
599619412275378944,555
599619412283064832,-101
599619412290750720,-236
599619412298436608,-116
599619412306122496,-70
599619412313808337,-36
599619412321494272,-21
599619412329180160,-41
599619412336866048,-36
599619412344551936,-14
599619412352237696,-14
599619412359923584,-12
599619412367609472,-2
599619412375295360,2
599619412382981248,7
599619412390667136,12
599619412398352896,19
599619412406038784,24
599619412413724672,31
599619412421410560,38
599619412429096448,48
599619412436782336,55
599619412444468096,62
599619412452153984,74
599619412459839872,87
599619412467525760,99
599619412475211648,111
599619412482897536,120
599619412490583424,130
599619412498269184,135
599619412505955072,137
599619412513640960,135
599619412521326848,123
599619412529012736,103
599619412536698624,72
599619412544384384,31
599619412552070272,-2
599619412559756160,-26
599619412567442048,-45
599619412575127936,-58
599619412582813824,-62
599619412590499584,-62
599619412598185472,-62
599619412605871360,-60
599619412613557248,-60
599619412621243136,-55
599619412628929024,-53
599619412636614912,-50
599619412644300672,-48
599619412651986560,-41
599619412659672448,-38
599619412667358336,-38
599619412675044224,-33
599619412682730112,-29
599619412690415872,-26
599619412698101760,-24
599619412705787648,-19
599619412713473536,-16
599619412721159424,-12
599619412728845312,-7
599619412736531072,-7
599619412744216960,-7
599619412751902848,-2
599619412759588736,0
599619412767274624,0
599619412774960512,0
599619412782646272,2
599619412790332160,0
599619412798018048,0
599619412805703936,2
599619412813389824,2
599619412821075712,2
599619412828761600,2
599619412836447360,4
599619412844133248,4
599619412851819136,4
599619412859505024,7
599619412867190912,7
599619412874876680,7
599619412882562560,9
599619412890248448,9
599619412897934336,7
599619412905620224,9
599619412913305984,9
599619412920991872,12
599619412928677760,12
599619412936363648,14
599619412944049536,14
599619412951735424,14
599619412959421184,14
599619412967107072,14
599619412974792960,16
599619412982478848,16
599619412990164736,16
599619412997850624,16
599619413005536384,16
599619413013222272,16
599619413020908160,16
599619413028594048,16
599619413036279936,16
599619413043965824,16
599619413051651712,16
599619413059337472,16
599619413067023360,19
599619413074709248,19
599619413082395136,19
599619413090081024,19
599619413097766912,21
599619413105452672,19
599619413113138560,21
599619413120824448,21
599619413128510336,21
599619413136196224,21
599619413143882112,24
599619413151567872,24
599619413159253760,21
599619413166939648,24
599619413174625536,24
599619413182311424,24
599619413189997312,24
599619413197683200,19
599619413205368960,14
599619413213054848,4
599619413220740736,-4
599619413228426624,7
599619413236112512,48
599619413243798400,79
599619413251484160,74
599619413259170048,65
599619413266855936,55
599619413274541824,31
599619413282227712,16
599619413289913600,24
599619413297599360,29
599619413305285248,24
599619413312971136,24
599619413320657024,26
599619413328342912,26
599619413336028800,21
599619413343714688,-26
599619413351400448,-171
599619413359086336,-253
599619413366772224,24
599619413374458112,659
599619413382144000,1162
599619413389829888,952
599619413397515648,212
599619413405201536,-227
599619413412887424,-171
599619413420573312,-72
599619413428259200,-55
599619413435945027,-36
599619413443630976,-41
599619413451316864,-48
599619413459002752,-29
599619413466688640,-19
599619413474374400,-19
599619413482060288,-9
599619413489746176,-2
599619413497432064,0
599619413505117952,4
599619413512803840,12
599619413520489600,19
599619413528175488,26
599619413535861376,33
599619413543547264,41
599619413551233152,48
599619413558919040,60
599619413566604800,70
599619413574290688,77
599619413581976576,87
599619413589662464,99
599619413597348352,113
599619413605034240,123
599619413612720128,128
599619413620405888,132
599619413628091776,135
599619413635777664,132
599619413643463552,118
599619413651149440,94
599619413658835328,62
599619413666521088,26
599619413674206976,-4
599619413681892864,-26
599619413689578752,-41
599619413697264640,-53
599619413704950528,-58
599619413712636288,-55
599619413720322176,-55
599619413728008064,-55
599619413735693952,-55
599619413743379840,-50
599619413751065728,-45
599619413758751616,-41
599619413766437376,-36
599619413774123264,-36
599619413781809152,-33
599619413789495040,-29
599619413797180928,-24
599619413804866816,-24
599619413812552576,-21
599619413820238464,-16
599619413827924352,-12
599619413835610240,-9
599619413843296128,-7
599619413850982016,-4
599619413858667776,-2
599619413866353664,-2
599619413874039552,-2
599619413881725440,2
599619413889411328,2
599619413897097216,0
599619413904782976,2
599619413912468864,2
599619413920154752,2
599619413927840640,4
599619413935526528,7
599619413943212416,4
599619413950898304,4
599619413958584064,7
599619413966269952,9
599619413973955840,9
599619413981641728,9
599619413989327616,9
599619413997013370,9
599619414004699264,9
599619414012385152,9
599619414020071040,9
599619414027756928,9
599619414035442688,12
599619414043128576,12
599619414050814464,12
599619414058500352,14
599619414066186240,16
599619414073872128,16
599619414081557888,16
599619414089243776,16
599619414096929664,14
599619414104615552,16
599619414112301440,21
599619414119987328,21
599619414127673088,19
599619414135358976,19
599619414143044864,21
599619414150730752,21
599619414158416640,21
599619414166102528,21
599619414173788416,24
599619414181474176,24
599619414189160064,24
599619414196845952,24
599619414204531840,26
599619414212217728,26
599619414219903616,26
599619414227589376,26
599619414235275264,26
599619414242961152,26
599619414250647040,24
599619414258332928,21
599619414266018816,19
599619414273704576,7
599619414281390464,2
599619414289076352,24
599619414296762240,67
599619414304448128,87
599619414312134016,72
599619414319819904,60
599619414327505664,48
599619414335191552,29
599619414342877440,24
599619414350563328,31
599619414358249216,31
599619414365935104,29
599619414373620864,31
599619414381306752,31
599619414388992640,29
599619414396678528,21
599619414404364416,-48
599619414412050304,-200
599619414419736064,-210
599619414427421952,188
599619414435107840,826
599619414442793728,1104
599619414450479616,645
599619414458165504,-45
599619414465851264,-253
599619414473537152,-137
599619414481223040,-79
599619414488908928,-31
599619414496594816,4
599619414504280704,-21
599619414511966592,-24
599619414519652352,0
599619414527338240,2
599619414535024128,2
599619414542710016,14
599619414550395904,19
599619414558081713,21
599619414565767552,29
599619414573453440,33
599619414581139328,41
599619414588825216,45
599619414596510976,53
599619414604196864,60
599619414611882752,70
599619414619568640,77
599619414627254528,84
599619414634940416,94
599619414642626176,106
599619414650312064,118
599619414657997952,128
599619414665683840,137
599619414673369728,142
599619414681055616,145
599619414688741376,142
599619414696427264,135
599619414704113152,120
599619414711799040,91
599619414719484928,53
599619414727170816,16
599619414734856704,-9
599619414742542464,-26
599619414750228352,-38
599619414757914240,-48
599619414765600128,-50
599619414773286016,-50
599619414780971904,-48
599619414788657664,-48
599619414796343552,-45
599619414804029440,-41
599619414811715328,-38
599619414819401216,-36
599619414827087104,-31
599619414834772864,-26
599619414842458752,-24
599619414850144640,-21
599619414857830528,-21
599619414865516416,-16
599619414873202304,-12
599619414880888192,-9
599619414888573952,-7
599619414896259840,-2
599619414903945728,-2
599619414911631616,0
599619414919317504,4
599619414927003392,4
599619414934689152,7
599619414942375040,7
599619414950060928,9
599619414957746816,7
599619414965432704,7
599619414973118592,7
599619414980804352,7
599619414988490240,9
599619414996176128,9
599619415003862016,9
599619415011547904,12
599619415019233792,14
599619415026919552,14
599619415034605440,12
599619415042291328,14
599619415049977216,14
599619415057663104,14
599619415065348992,14
599619415073034880,14
599619415080720640,14
599619415088406528,16
599619415096092416,14
599619415103778304,16
599619415111464192,19
599619415119150056,16
599619415126835584,16
599619415134521088,19
599619415142206464,19
599619415149891968,19
599619415157577344,21
599619415165262848,21
599619415172948224,19
599619415180633728,21
599619415188319232,21
599619415196004608,21
599619415203690112,21
599619415211375488,24
599619415219060992,24
599619415226746368,21
599619415234431872,24
599619415242117376,24
599619415249802752,24
599619415257488256,24
599619415265173632,24
599619415272859136,24
599619415280544640,21
599619415288230016,21
599619415295915520,24
599619415303600896,26
599619415311286400,26
599619415318971776,24
599619415326657280,26
599619415334342784,26
599619415342028160,21
599619415349713664,19
599619415357399040,7
599619415365084544,-4
599619415372769920,4
599619415380455424,43
599619415388140928,79
599619415395826304,79
599619415403511808,67
599619415411197184,58
599619415418882688,36
599619415426568064,16
599619415434253568,24
599619415441939072,31
599619415449624448,29
599619415457309952,26
599619415464995328,29
599619415472680832,29
599619415480366208,24
599619415488051712,-14
599619415495737216,-149
599619415503422592,-258
599619415511108096,-31
599619415518793472,587
599619415526478976,1143
599619415534164352,1022
599619415541849856,302
599619415549535360,-205
599619415557220736,-188
599619415564906240,-77
599619415572591616,-55
599619415580277120,-36
599619415587962624,-36
599619415595648000,-45
599619415603333504,-31
599619415611018880,-19
599619415618704384,-19
599619415626389760,-12
599619415634075264,-4
599619415641760768,0
599619415649446144,4
599619415657131648,9
599619415664817024,14
599619415672502528,21
599619415680187881,26
599619415687873792,33
599619415695559680,43
599619415703245568,50
599619415710931456,58
599619415718617216,67
599619415726303104,79
599619415733988992,91
599619415741674880,106
599619415749360768,116
599619415757046656,120
599619415764732416,123
599619415772418304,128
599619415780104192,125
599619415787790080,116
599619415795475968,96
599619415803161856,65
599619415810847616,29
599619415818533504,-4
599619415826219392,-26
599619415833905280,-43
599619415841591168,-55
599619415849277056,-60
599619415856962944,-60
599619415864648704,-60
599619415872334592,-58
599619415880020480,-55
599619415887706368,-53
599619415895392256,-50
599619415903078144,-45
599619415910763904,-43
599619415918449792,-41
599619415926135680,-33
599619415933821568,-31
599619415941507456,-31
599619415949193344,-24
599619415956879104,-19
599619415964564992,-16
599619415972250880,-14
599619415979936768,-14
599619415987622656,-12
599619415995308544,-7
599619416002994432,-4
599619416010680192,-2
599619416018366080,-2
599619416026051968,0
599619416033737856,0
599619416041423744,2
599619416049109632,2
599619416056795392,0
599619416064481280,2
599619416072167168,2
599619416079853056,2
599619416087538944,2
599619416095224832,7
599619416102910592,7
599619416110596480,7
599619416118282368,7
599619416125968256,7
599619416133654144,4
599619416141340032,4
599619416149025792,9
599619416156711680,9
599619416164397568,7
599619416172083456,9
599619416179769344,12
599619416187455232,12
599619416195141120,12
599619416202826880,12
599619416210512768,12
599619416218198656,14
599619416225884544,14
599619416233570432,14
599619416241256224,14
599619416248942080,14
599619416256627968,16
599619416264313856,16
599619416271999744,16
599619416279685504,19
599619416287371392,16
599619416295057280,16
599619416302743168,16
599619416310429056,19
599619416318114944,19
599619416325800704,19
599619416333486592,19
599619416341172480,21
599619416348858368,21
599619416356544256,21
599619416364230144,21
599619416371915904,21
599619416379601792,24
599619416387287680,21
599619416394973568,21
599619416402659456,21
599619416410345344,16
599619416418031232,12
599619416425716992,0
599619416433402880,0
599619416441088768,29
599619416448774656,67
599619416456460544,79
599619416464146432,67
599619416471832192,55
599619416479518080,38
599619416487203968,19
599619416494889856,19
599619416502575744,29
599619416510261632,24
599619416517947392,24
599619416525633280,26
599619416533319168,26
599619416541005056,24
599619416548690944,9
599619416556376832,-87
599619416564062720,-229
599619416571748480,-147
599619416579434368,345
599619416587120256,942
599619416594806144,1017
599619416602492032,406
599619416610177920,-183
599619416617863680,-234
599619416625549568,-113
599619416633235456,-74
599619416640921344,-14
599619416648607232,4
599619416656293120,-26
599619416663978880,-16
599619416671664768,4
599619416679350656,2
599619416687036544,4
599619416694722432,19
599619416702408320,21
599619416710094208,24
599619416717779968,31
599619416725465856,36
599619416733151744,41
599619416740837632,48
599619416748523520,55
599619416756209408,60
599619416763895168,67
599619416771581056,79
599619416779266944,89
599619416786952832,99
599619416794638720,108
599619416802324571,120
599619416810010496,132
599619416817696384,140
599619416825382272,147
599619416833068160,147
599619416840753920,145
599619416848439808,135
599619416856125696,118
599619416863811584,87
599619416871497472,48
599619416879183360,12
599619416886869120,-12
599619416894555008,-29
599619416902240896,-41
599619416909926784,-48
599619416917612672,-53
599619416925298560,-55
599619416932984320,-50
599619416940670208,-45
599619416948356096,-45
599619416956041984,-43
599619416963727872,-36
599619416971413760,-33
599619416979099648,-33
599619416986785408,-29
599619416994471296,-21
599619417002157184,-21
599619417009843072,-19
599619417017528960,-14
599619417025214848,-12
599619417032900608,-9
599619417040586496,-4
599619417048272384,-4
599619417055958272,-2
599619417063644160,0
599619417071330048,2
599619417079015808,4
599619417086701696,4
599619417094387584,7
599619417102073472,7
599619417109759360,7
599619417117445248,7
599619417125131136,7
599619417132816896,7
599619417140502784,7
599619417148188672,9
599619417155874560,9
599619417163560448,9
599619417171246336,9
599619417178932096,9
599619417186617984,9
599619417194303872,9
599619417201989760,9
599619417209675648,12
599619417217361536,12
599619417225047296,9
599619417232733184,12
599619417240419072,12
599619417248104960,12
599619417255790848,14
599619417263476736,16
599619417271162496,14
599619417278848384,14
599619417286534272,14
599619417294220160,16
599619417301906048,16
599619417309591936,16
599619417317277824,16
599619417324963584,16
599619417332649472,16
599619417340335360,16
599619417348021248,16
599619417355707136,16
599619417363392914,16
599619417371078784,19
599619417378764672,19
599619417386450560,19
599619417394136448,19
599619417401822208,16
599619417409508096,16
599619417417193984,19
599619417424879872,16
599619417432565760,16
599619417440251648,21
599619417447937408,21
599619417455623296,19
599619417463309184,19
599619417470995072,21
599619417478680960,19
599619417486366848,21
599619417494052608,21
599619417501738496,19
599619417509424384,16
599619417517110272,16
599619417524796160,12
599619417532482048,2
599619417540167936,-9
599619417547853696,2
599619417555539584,45
599619417563225472,79
599619417570911360,72
599619417578597248,60
599619417586283136,50
599619417593968896,29
599619417601654784,9
599619417609340672,19
599619417617026560,26
599619417624712448,19
599619417632398336,19
599619417640084096,24
599619417647769984,21
599619417655455872,19
599619417663141760,-21
599619417670827648,-161
599619417678513536,-261
599619417686199424,-16
599619417693885184,604
599619417701571072,1131
599619417709256960,974
599619417716942848,256
599619417724628736,-215
599619417732314624,-181
599619417740000384,-77
599619417747686272,-55
599619417755372160,-36
599619417763058048,-38
599619417770743936,-48
599619417778429824,-31
599619417786115584,-21
599619417793801472,-21
599619417801487360,-12
599619417809173248,-4
599619417816859136,-2
599619417824545024,4
599619417832230784,9
599619417839916672,14
599619417847602560,21
599619417855288448,29
599619417862974336,36
599619417870660224,43
599619417878346112,50
599619417886031872,60
599619417893717760,72
599619417901403648,79
599619417909089536,91
599619417916775424,103
599619417924461257,116
599619417932147200,120
599619417939833088,125
599619417947518976,128
599619417955204864,125
599619417962890624,116
599619417970576512,96
599619417978262400,67
599619417985948288,31
599619417993634176,0
599619418001320064,-21
599619418009005824,-38
599619418016691712,-50
599619418024377600,-55
599619418032063488,-58
599619418039749376,-55
599619418047435264,-55
599619418055121024,-55
599619418062806912,-50
599619418070492800,-45
599619418078178688,-43
599619418085864576,-38
599619418093550464,-36
599619418101236352,-33
599619418108922112,-31
599619418116608000,-26
599619418124293888,-24
599619418131979776,-21
599619418139665664,-16
599619418147351552,-16
599619418155037312,-14
599619418162723200,-12
599619418170409088,-7
599619418178094976,-7
599619418185780864,-4
599619418193466752,0
599619418201152512,0
599619418208838400,0
599619418216524288,0
599619418224210176,2
599619418231896064,2
599619418239581952,2
599619418247267840,0
