599619087871372928,65
599619087879058688,74
599619087886744576,79
599619087894430464,79
599619087902116352,82
599619087909802240,84
599619087917488128,87
599619087925173888,89
599619087932859776,94
599619087940545664,96
599619087948231552,99
599619087955917440,101
599619087963603328,99
599619087971289216,99
599619087978974976,101
599619087986660864,106
599619087994346752,103
599619088002032640,103
599619088009718528,106
599619088017404347,108
599619088025090176,106
599619088032776064,108
599619088040461952,111
599619088048147840,111
599619088055833600,108
599619088063519488,108
599619088071205376,111
599619088078891264,111
599619088086577152,108
599619088094263040,103
599619088101948800,101
599619088109634688,99
599619088117320576,96
599619088125006464,113
599619088132692352,152
599619088140378240,161
599619088148064000,152
599619088155749888,149
599619088163435776,137
599619088171121664,113
599619088178807552,106
599619088186493440,113
599619088194179328,111
599619088201865088,111
599619088209550976,113
599619088217236864,111
599619088224922752,111
599619088232608640,111
599619088240294528,99
599619088247980288,16
599619088255666176,-108
599619088263352064,-38
599619088271037952,403
599619088278723840,935
599619088286409728,978
599619088294095488,398
599619088301781376,-125
599619088309467264,-145
599619088317153152,-16
599619088324839040,29
599619088332524928,89
599619088340210816,108
599619088347896576,79
599619088355582464,91
599619088363268352,113
599619088370954240,108
599619088378640128,113
599619088386326016,135
599619088394011776,142
599619088401697664,142
599619088409383552,147
599619088417069440,147
599619088424755328,142
599619088432441216,149
599619088440126976,159
599619088447812864,161
599619088455498752,161
599619088463184640,169
599619088470870528,176
599619088478556416,183
599619088486242176,190
599619088493928064,200
599619088501613952,205
599619088509299840,212
599619088516985728,217
599619088524671616,219
599619088532357504,219
599619088540043264,205
599619088547729152,178
599619088555415040,142
599619088563100928,103
599619088570786816,70
599619088578472690,50
599619088586158592,33
599619088593844480,26
599619088601530368,24
599619088609216256,24
599619088616902016,21
599619088624587904,21
599619088632273792,21
599619088639959680,21
599619088647645568,26
599619088655331456,31
599619088663017216,31
599619088670703104,33
599619088678388992,38
599619088686074880,43
599619088693760768,45
599619088701446656,48
599619088709132416,50
599619088716818304,53
599619088724504192,58
599619088732190080,60
599619088739875968,62
599619088747561856,62
599619088755247744,65
599619088762933504,67
599619088770619392,67
599619088778305280,67
599619088785991168,65
599619088793677056,67
599619088801362944,67
599619088809048704,65
599619088816734592,67
599619088824420480,70
599619088832106368,70
599619088839792256,70
599619088847478144,70
599619088855163904,70
599619088862849792,70
599619088870535680,70
599619088878221568,67
599619088885907456,67
599619088893593344,67
599619088901279232,67
599619088908964992,67
599619088916650880,70
599619088924336768,70
599619088932022656,72
599619088939708544,72
599619088947394432,70
599619088955080192,70
599619088962766080,70
599619088970451968,72
599619088978137856,72
599619088985823744,72
599619088993509632,70
599619089001195392,67
599619089008881280,62
599619089016567168,50
599619089024253056,60
599619089031938944,103
599619089039624832,128
599619089047310592,118
599619089054996480,113
599619089062682368,108
599619089070368256,84
599619089078054144,65
599619089085740032,70
599619089093425920,74
599619089101111680,72
599619089108797568,72
599619089116483456,72
599619089124169344,74
599619089131855232,77
599619089139541033,67
599619089147226880,7
599619089154912768,-125
599619089162598656,-137
599619089170284544,219
599619089177970304,824
599619089185656192,1123
599619089193342080,725
599619089201027968,72
599619089208713856,-152
599619089216399744,-50
599619089224085504,9
599619089231771392,24
599619089239457280,31
599619089247143168,21
599619089254829056,29
599619089262514944,45
599619089270200704,50
599619089277886592,55
599619089285572480,62
599619089293258368,67
599619089300944256,70
599619089308630144,77
599619089316316032,82
599619089324001792,84
599619089331687680,89
599619089339373568,96
599619089347059456,99
599619089354745344,101
599619089362431232,108
599619089370116992,116
599619089377802880,120
599619089385488768,128
599619089393174656,137
599619089400860544,145
599619089408546432,149
599619089416232192,157
599619089423918080,161
599619089431603968,161
599619089439289856,161
599619089446975744,152
599619089454661632,128
599619089462347520,94
599619089470033280,65
599619089477719168,43
599619089485405056,26
599619089493090944,14
599619089500776832,9
599619089508462720,9
599619089516148480,7
599619089523834368,7
599619089531520256,12
599619089539206144,16
599619089546892032,19
599619089554577920,21
599619089562263680,26
599619089569949568,31
599619089577635456,33
599619089585321344,36
599619089593007232,38
599619089600693120,43
599619089608378880,48
599619089616064768,48
599619089623750656,50
599619089631436544,53
599619089639122432,55
599619089646808320,58
599619089654494208,60
599619089662179968,60
599619089669865856,60
599619089677551744,62
599619089685237632,65
599619089692923520,67
599619089700609376,67
599619089708295296,65
599619089715981184,67
599619089723667072,67
599619089731352960,67
599619089739038720,67
599619089746724608,70
599619089754410496,72
599619089762096384,72
599619089769782272,72
599619089777468160,72
599619089785153920,74
599619089792839808,74
599619089800525696,70
599619089808211584,72
599619089815897472,77
599619089823583360,74
599619089831269120,74
599619089838955008,77
599619089846640896,77
599619089854326784,74
599619089862012672,74
599619089869698560,77
599619089877384448,79
599619089885070208,77
599619089892756096,74
599619089900441984,77
599619089908127872,77
599619089915813760,74
599619089923499648,72
599619089931185408,72
599619089938871296,65
599619089946557184,55
599619089954243072,70
599619089961928960,111
599619089969614848,135
599619089977300608,123
599619089984986496,113
599619089992672384,108
599619090000358272,87
599619090008044160,67
599619090015730048,72
599619090023415936,77
599619090031101696,72
599619090038787584,70
599619090046473472,72
599619090054159360,74
599619090061845248,74
599619090069531136,67
599619090077216896,-7
599619090084902784,-145
599619090092588672,-120
599619090100274560,290
599619090107960448,896
599619090115646336,1114
599619090123332096,618
599619090131017984,-26
599619090138703872,-176
599619090146389760,-48
599619090154075648,4
599619090161761536,24
599619090169447424,33
599619090177133184,21
599619090184819072,29
599619090192504960,48
599619090200190848,53
599619090207876736,55
599619090215562624,62
599619090223248384,67
599619090230934272,72
599619090238620160,79
599619090246306048,82
599619090253991936,84
599619090261677723,91
599619090269363584,99
599619090277049472,101
599619090284735360,103
599619090292421248,113
599619090300107008,120
599619090307792896,125
599619090315478784,135
599619090323164672,145
599619090330850560,149
599619090338536448,157
599619090346222208,164
599619090353908096,166
599619090361593984,169
599619090369279872,164
599619090376965760,152
599619090384651648,130
599619090392337408,96
599619090400023296,62
599619090407709184,38
599619090415395072,21
599619090423080960,12
599619090430766848,4
599619090438452736,2
599619090446138496,4
599619090453824384,7
599619090461510272,4
599619090469196160,7
599619090476882048,14
599619090484567936,16
599619090492253696,16
599619090499939584,21
599619090507625472,29
599619090515311360,31
599619090522997248,31
599619090530683136,38
599619090538368896,41
599619090546054784,45
599619090553740672,48
599619090561426560,53
599619090569112448,55
599619090576798336,53
599619090584484224,53
599619090592169984,58
599619090599855872,58
599619090607541760,58
599619090615227648,60
599619090622913536,60
599619090630599424,60
599619090638285184,62
599619090645971072,65
599619090653656960,65
599619090661342848,65
599619090669028736,65
599619090676714624,67
599619090684400384,70
599619090692086272,72
599619090699772160,70
599619090707458048,70
599619090715143936,72
599619090722829824,74
599619090730515584,74
599619090738201472,74
599619090745887360,74
599619090753573248,74
599619090761259136,74
599619090768945024,74
599619090776630912,74
599619090784316672,74
599619090792002560,70
599619090799688448,70
599619090807374336,67
599619090815060224,60
599619090822746066,77
599619090830432000,116
599619090838117888,130
599619090845803776,120
599619090853489664,116
599619090861175424,101
599619090868861312,79
599619090876547200,74
599619090884233088,77
599619090891918976,79
599619090899604864,77
599619090907290624,74
599619090914976512,77
599619090922662400,79
599619090930348288,82
599619090938034176,74
599619090945720064,7
599619090953405824,-123
599619090961091712,-101
599619090968777600,292
599619090976463488,858
599619090984149376,1005
599619090991835264,483
599619090999521152,-111
599619091007206912,-200
599619091014892800,-67
599619091022578688,-9
599619091030264576,53
599619091037950464,82
599619091045636352,48
599619091053322112,55
599619091061008000,79
599619091068693888,74
599619091076379776,77
599619091084065664,89
599619091091751552,87
599619091099437312,89
599619091107123200,99
599619091114809088,101
599619091122494976,106
599619091130180864,111
599619091137866752,111
599619091145552640,118
599619091153238400,123
599619091160924288,125
599619091168610176,130
599619091176296064,140
599619091183981952,149
599619091191667840,159
599619091199353600,166
599619091207039488,174
599619091214725376,178
599619091222411264,181
599619091230097152,178
599619091237783040,171
599619091245468800,154
599619091253154688,123
599619091260840576,84
599619091268526464,50
599619091276212352,26
599619091283898240,9
599619091291584000,2
599619091299269888,0
599619091306955776,-7
599619091314641664,-9
599619091322327552,-2
599619091330013440,0
599619091337699328,-2
599619091345385088,0
599619091353070976,4
599619091360756864,9
599619091368442752,9
599619091376128640,14
599619091383814409,26
599619091391500288,29
599619091399186176,29
599619091406872064,31
599619091414557952,36
599619091422243712,38
599619091429929600,43
599619091437615488,48
599619091445301376,48
599619091452987264,45
599619091460673152,48
599619091468358912,50
599619091476044800,55
599619091483730688,55
599619091491416576,53
599619091499102464,55
599619091506788352,53
599619091514474112,48
599619091522160000,50
599619091529845888,53
599619091537531776,53
599619091545217664,55
599619091552903552,58
599619091560589440,58
599619091568275200,58
599619091575961088,60
599619091583646976,62
599619091591332864,60
599619091599018752,58
599619091606704640,60
599619091614390400,62
599619091622076288,62
599619091629762176,60
599619091637448064,62
599619091645133952,65
599619091652819840,65
599619091660505600,65
599619091668191488,67
599619091675877376,67
599619091683563264,65
599619091691249152,65
599619091698935040,67
599619091706620928,67
599619091714306688,65
599619091721992576,67
599619091729678464,65
599619091737364352,60
599619091745050240,50
599619091752736128,45
599619091760421888,65
599619091768107776,111
599619091775793664,123
599619091783479552,106
599619091791165440,101
599619091798851328,94
599619091806537088,70
599619091814222976,60
599619091821908864,67
599619091829594752,67
599619091837280640,67
599619091844966528,70
599619091852652288,70
599619091860338176,65
599619091868024064,67
599619091875709952,55
599619091883395840,-29
599619091891081728,-161
599619091898767616,-96
599619091906453376,357
599619091914139264,947
599619091921825152,1073
599619091929511040,514
599619091937196928,-77
599619091944882752,-159
599619091952568576,-36
599619091960254464,2
599619091967940352,19
599619091975626240,24
599619091983312000,14
599619091990997888,26
599619091998683776,41
599619092006369664,41
599619092014055552,45
599619092021741440,55
599619092029427200,62
599619092037113088,65
599619092044798976,67
599619092052484864,70
599619092060170752,72
599619092067856640,77
599619092075542400,84
599619092083228288,89
599619092090914176,94
599619092098600064,103
599619092106285952,108
599619092113971840,113
599619092121657728,118
599619092129343488,128
599619092137029376,140
599619092144715264,145
599619092152401152,145
599619092160087040,149
599619092167772928,147
599619092175458688,140
599619092183144576,132
599619092190830464,111
599619092198516352,79
599619092206202240,53
599619092213888128,26
599619092221573888,4
599619092229259776,-2
599619092236945664,-2
599619092244631552,-7
599619092252317440,-9
599619092260003328,-2
599619092267689216,0
599619092275374976,2
599619092283060864,7
599619092290746752,12
599619092298432640,14
599619092306118528,16
599619092313804416,21
599619092321490176,26
599619092329176064,31
599619092336861952,33
599619092344547840,38
599619092352233728,41
599619092359919616,41
599619092367605376,41
599619092375291264,45
599619092382977152,48
599619092390663040,50
599619092398348928,50
599619092406034816,50
599619092413720576,53
599619092421406464,55
599619092429092352,55
599619092436778240,55
599619092444464128,55
599619092452150016,55
599619092459835904,53
599619092467521664,55
599619092475207552,60
599619092482893440,60
599619092490579328,58
599619092498265216,58
599619092505951095,58
599619092513636992,60
599619092521322880,62
599619092529008768,62
599619092536694656,62
599619092544380416,62
599619092552066304,65
599619092559752192,62
599619092567438080,65
599619092575123968,67
599619092582809856,65
599619092590495616,65
599619092598181504,65
599619092605867392,67
599619092613553280,70
599619092621239168,67
599619092628925056,65
599619092636610816,65
599619092644296704,67
599619092651982592,65
599619092659668480,67
599619092667354368,70
599619092675040256,67
599619092682726144,67
599619092690411904,67
599619092698097792,67
599619092705783680,67
599619092713469568,62
599619092721155456,60
599619092728841344,53
599619092736527104,43
599619092744212992,65
599619092751898880,108
599619092759584768,120
599619092767270656,103
599619092774956544,101
599619092782642304,94
599619092790328192,65
599619092798014080,55
599619092805699968,65
599619092813385856,67
599619092821071744,65
599619092828757632,65
599619092836443392,67
599619092844129280,65
599619092851815168,65
599619092859501056,45
599619092867186944,-53
599619092874872832,-176
599619092882558592,-55
599619092890244480,447
599619092897930368,1010
599619092905616256,1029
599619092913302144,406
599619092920988032,-137
599619092928673792,-159
599619092936359680,-36
599619092944045568,-2
599619092951731456,24
599619092959417344,26
599619092967103232,16
599619092974788992,29
599619092982474880,43
599619092990160768,43
599619092997846656,48
599619093005532544,58
599619093013218432,62
599619093020904320,67
599619093028590080,74
599619093036275968,77
599619093043961856,79
599619093051647744,84
599619093059333632,91
599619093067019438,94
599619093074705280,96
599619093082391168,103
599619093090077056,111
599619093097762944,118
599619093105448704,125
599619093113134592,132
599619093120820480,140
599619093128506368,145
599619093136192256,149
599619093143878144,154
599619093151563904,157
599619093159249792,147
599619093166935680,132
599619093174621568,111
599619093182307456,82
599619093189993344,50
599619093197679104,29
599619093205364992,14
599619093213050880,2
599619093220736768,-4
599619093228422656,-4
599619093236108544,-4
599619093243794432,-4
599619093251480192,-4
599619093259166080,0
599619093266851968,7
599619093274537856,9
599619093282223744,9
599619093289909632,16
599619093297595392,24
599619093305281280,21
599619093312967168,24
599619093320653056,31
599619093328338944,33
599619093336024832,36
599619093343710592,38
599619093351396480,43
599619093359082368,43
599619093366768256,45
599619093374454144,43
599619093382140032,48
599619093389825920,50
599619093397511680,50
599619093405197568,50
599619093412883456,53
599619093420569344,53
599619093428255232,48
599619093435941120,53
599619093443626880,58
599619093451312768,55
599619093458998656,55
599619093466684544,58
599619093474370432,58
599619093482056320,58
599619093489742080,58
599619093497427968,62
599619093505113856,62
599619093512799744,60
599619093520485632,62
599619093528171520,65
599619093535857408,65
599619093543543168,65
599619093551229056,65
599619093558914944,67
599619093566600832,67
599619093574286720,67
599619093581972608,67
599619093589658368,67
599619093597344256,70
599619093605030144,70
599619093612716032,67
599619093620401920,67
599619093628087785,67
599619093635773696,65
599619093643459584,62
599619093651145472,58
599619093658831360,58
599619093666517120,84
599619093674203008,118
599619093681888896,120
599619093689574784,108
599619093697260672,101
599619093704946560,84
599619093712632320,67
599619093720318208,62
599619093728004096,70
599619093735689984,72
599619093743375872,70
599619093751061760,67
599619093758747520,70
599619093766433408,72
599619093774119296,70
599619093781805184,38
599619093789491072,-67
599619093797176960,-159
599619093804862848,41
599619093812548608,570
599619093820234496,990
599619093827920384,783
599619093835606272,125
599619093843292160,-227
599619093850978048,-142
599619093858663808,-41
599619093866349696,9
599619093874035584,67
599619093881721472,53
599619093889407360,31
599619093897093248,60
599619093904779008,70
599619093912464896,62
599619093920150784,72
599619093927836672,79
599619093935522560,79
599619093943208448,84
599619093950894336,91
599619093958580096,94
599619093966265984,96
599619093973951872,103
599619093981637760,108
599619093989323648,113
599619093997009536,120
599619094004695296,125
599619094012381184,130
599619094020067072,140
599619094027752960,147
599619094035438848,154
599619094043124736,159
599619094050810496,164
599619094058496384,166
599619094066182272,166
599619094073868160,166
599619094081554048,157
599619094089239936,135
599619094096925696,101
599619094104611584,65
599619094112297472,38
599619094119983360,16
599619094127669248,2
599619094135355136,-4
599619094143041024,-9
599619094150726784,-12
599619094158412672,-9
599619094166098560,-7
599619094173784448,-4
599619094181470336,-2
599619094189156128,2
599619094196841984,4
599619094204527872,4
599619094212213760,7
599619094219899648,14
599619094227585408,19
599619094235271296,21
599619094242957184,24
599619094250643072,29
599619094258328960,33
599619094266014848,36
599619094273700608,36
599619094281386496,38
599619094289072384,41
599619094296758272,41
599619094304444160,41
599619094312130048,43
599619094319815808,43
599619094327501696,43
599619094335187584,43
599619094342873472,43
599619094350559360,43
599619094358245248,43
599619094365931136,43
599619094373616896,43
599619094381302784,45
599619094388988672,45
599619094396674560,50
599619094404360448,48
599619094412046336,45
599619094419732096,50
599619094427417984,50
599619094435103872,48
599619094442789760,48
599619094450475648,50
599619094458161536,50
599619094465847296,53
599619094473533184,53
599619094481219072,55
599619094488904960,55
599619094496590848,55
599619094504276736,55
599619094511962624,55
599619094519648384,53
599619094527334272,53
599619094535020160,55
599619094542706048,55
599619094550391936,58
599619094558077824,55
599619094565763584,55
599619094573449472,58
599619094581135360,55
599619094588821248,53
599619094596507136,53
599619094604193024,45
599619094611878784,36
599619094619564672,53
599619094627250560,91
599619094634936448,111
599619094642622336,99
599619094650308224,94
599619094657993984,84
599619094665679872,60
599619094673365760,50
599619094681051648,55
599619094688737536,58
599619094696423424,55
599619094704109312,55
599619094711795072,58
599619094719480960,60
599619094727166848,60
599619094734852736,43
599619094742538624,-43
599619094750224471,-174
599619094757910400,-94
599619094765596288,369
599619094773282176,945
599619094780968064,1041
599619094788653824,476
599619094796339712,-96
599619094804025600,-169
599619094811711488,-45
599619094819397376,-7
599619094827083264,9
599619094834769024,14
599619094842454912,4
599619094850140800,16
599619094857826688,31
599619094865512576,31
599619094873198464,38
599619094880884224,45
599619094888570112,48
599619094896256000,53
599619094903941888,60
599619094911627776,65
599619094919313664,67
599619094926999552,72
599619094934685312,79
599619094942371200,84
599619094950057088,87
599619094957742976,91
599619094965428864,99
599619094973114752,103
599619094980800512,108
599619094988486400,116
599619094996172288,125
599619095003858176,130
599619095011544064,132
599619095019229952,135
599619095026915712,135
599619095034601600,130
599619095042287488,118
599619095049973376,96
599619095057659264,65
599619095065345152,36
599619095073031040,12
599619095080716800,-2
599619095088402688,-9
599619095096088576,-16
599619095103774464,-19
599619095111460352,-19
599619095119146240,-16
599619095126832000,-12
599619095134517888,-9
599619095142203776,-7
599619095149889664,-2
599619095157575552,0
599619095165261440,2
599619095172947200,7
599619095180633088,12
599619095188318976,14
599619095196004864,19
599619095203690752,21
599619095211376640,24
599619095219062400,26
599619095226748288,29
599619095234434176,31
599619095242120064,31
599619095249805952,33
599619095257491840,36
599619095265177728,36
599619095272863488,36
599619095280549376,38
599619095288235264,38
599619095295921152,38
599619095303607040,41
599619095311292814,41
599619095318978688,38
599619095326664576,38
599619095334350464,38
599619095342036352,41
599619095349722112,43
599619095357408000,43
599619095365093888,43
599619095372779776,43
599619095380465664,43
599619095388151552,41
599619095395837312,43
599619095403523200,48
599619095411209088,45
599619095418894976,45
599619095426580864,45
599619095434266752,45
599619095441952512,45
599619095449638400,50
599619095457324288,53
599619095465010176,50
599619095472696064,48
599619095480381952,50
599619095488067840,50
599619095495753600,53
599619095503439488,53
599619095511125376,53
599619095518811264,55
599619095526497152,53
599619095534183040,50
599619095541868800,55
599619095549554688,58
599619095557240576,55
599619095564926464,55
599619095572612352,58
599619095580298240,58
599619095587984000,58
599619095595669888,55
599619095603355776,58
599619095611041664,60
599619095618727552,58
599619095626413440,58
599619095634099328,58
599619095641785088,55
599619095649470976,50
599619095657156864,48
599619095664842752,43
599619095672528640,45
599619095680214528,74
599619095687900288,108
599619095695586176,108
599619095703272064,96
599619095710957952,89
599619095718643840,70
599619095726329728,53
599619095734015488,53
599619095741701376,58
599619095749387264,58
599619095757073152,55
599619095764759040,55
599619095772444928,58
599619095780130688,58
599619095787816576,45
599619095795502464,-43
599619095803188352,-166
599619095810874240,-79
599619095818560128,381
599619095826246016,932
599619095833931776,986
599619095841617664,398
599619095849303552,-154
599619095856989440,-198
599619095864675328,-65
599619095872361157,-14
599619095880047104,26
599619095887732992,33
599619095895418880,9
599619095903104768,24
599619095910790528,43
599619095918476416,41
599619095926162304,45
599619095933848192,58
599619095941534080,62
599619095949219968,62
599619095956905728,65
599619095964591616,72
599619095972277504,77
599619095979963392,79
599619095987649280,84
599619095995335168,89
599619096003020928,94
599619096010706816,101
599619096018392704,106
599619096026078592,111
599619096033764480,118
599619096041450368,125
599619096049136256,132
599619096056822016,140
599619096064507904,142
599619096072193792,145
599619096079879680,147
599619096087565568,142
599619096095251456,130
599619096102937216,111
599619096110623104,82
599619096118308992,50
599619096125994880,29
599619096133680768,12
599619096141366656,0
599619096149052416,-7
599619096156738304,-12
599619096164424192,-12
599619096172110080,-9
599619096179795968,-9
599619096187481856,-7
599619096195167744,-4
599619096202853504,0
599619096210539392,4
599619096218225280,9
599619096225911168,12
599619096233597056,14
599619096241282944,19
599619096248968704,24
599619096256654592,26
599619096264340480,29
599619096272026368,31
599619096279712256,31
599619096287398144,38
599619096295083904,43
599619096302769792,41
599619096310455680,38
599619096318141568,41
599619096325827456,43
599619096333513344,43
599619096341199104,43
599619096348884992,45
599619096356570880,45
599619096364256768,45
599619096371942656,45
599619096379628544,45
599619096387314432,48
599619096395000192,48
599619096402686080,48
599619096410371968,48
599619096418057856,50
599619096425743744,53
599619096433429500,50
599619096441115392,50
599619096448801280,55
599619096456487168,53
599619096464173056,50
599619096471858816,53
599619096479544704,55
599619096487230592,53
599619096494916480,53
599619096502602368,53
599619096510288256,55
599619096517974016,55
599619096525659904,53
599619096533345792,53
599619096541031680,55
599619096548717568,53
599619096556403456,53
599619096564089216,50
599619096571775104,45
599619096579460992,38
599619096587146880,41
599619096594832768,72
599619096602518656,106
599619096610204544,103
599619096617890304,94
599619096625576192,87
599619096633262080,65
599619096640947968,45
599619096648633856,48
599619096656319744,53
599619096664005504,53
599619096671691392,50
599619096679377280,50
599619096687063168,50
599619096694749056,50
599619096702434944,48
599619096710120704,2
599619096717806592,-125
599619096725492480,-169
599619096733178368,140
599619096740864256,722
599619096748550144,1051
599619096756236032,688
599619096763921792,19
599619096771607680,-236
599619096779293568,-120
599619096786979456,-36
599619096794665344,0
599619096802351232,29
599619096810036992,12
599619096817722880,9
599619096825408768,29
599619096833094656,33
599619096840780544,33
599619096848466432,43
599619096856152192,48
599619096863838080,53
599619096871523968,58
599619096879209856,62
599619096886895744,67
599619096894581632,70
599619096902267520,74
599619096909953280,79
599619096917639168,87
599619096925325056,91
599619096933010944,96
599619096940696832,103
599619096948382720,111
599619096956068480,120
599619096963754368,125
599619096971440256,135
599619096979126144,140
599619096986812032,142
599619096994497847,142
599619097002183680,140
599619097009869568,130
599619097017555456,106
599619097025241344,70
599619097032927104,36
599619097040612992,12
599619097048298880,-4
599619097055984768,-19
599619097063670656,-26
599619097071356544,-29
599619097079042304,-26
599619097086728192,-26
599619097094414080,-26
599619097102099968,-21
599619097109785856,-19
599619097117471744,-16
599619097125157504,-12
599619097132843392,-7
599619097140529280,-2
599619097148215168,0
599619097155901056,2
599619097163586944,7
599619097171272832,12
599619097178958592,19
599619097186644480,21
599619097194330368,21
599619097202016256,24
599619097209702144,26
599619097217388032,29
599619097225073792,31
599619097232759680,31
599619097240445568,31
599619097248131456,33
599619097255817344,33
599619097263503232,33
599619097271188992,33
599619097278874880,36
599619097286560768,36
599619097294246656,33
599619097301932544,36
599619097309618432,38
599619097317304320,36
599619097324990080,36
599619097332675968,38
599619097340361856,38
599619097348047744,38
599619097355733632,41
599619097363419520,43
599619097371105280,41
599619097378791168,38
599619097386477056,41
599619097394162944,45
599619097401848832,43
599619097409534720,43
599619097417220480,45
599619097424906368,45
599619097432592256,45
599619097440278144,48
599619097447964032,48
599619097455649920,45
599619097463335680,48
599619097471021568,50
599619097478707456,48
599619097486393344,50
599619097494079232,50
599619097501765120,50
599619097509451008,48
599619097517136768,50
599619097524822656,50
599619097532508544,45
599619097540194432,45
599619097547880320,43
599619097555566190,33
599619097563252224,31
599619097570938240,55
599619097578624384,94
599619097586310400,101
599619097593996544,89
599619097601682560,87
599619097609368704,72
599619097617054720,48
599619097624740864,43
599619097632426880,50
599619097640113024,50
599619097647799040,48
599619097655485184,50
599619097663171200,48
599619097670857344,48
599619097678543360,48
599619097686229504,4
599619097693915520,-125
599619097701601664,-186
599619097709287680,91
599619097716973696,681
599619097724659840,1092
599619097732345856,814
599619097740032000,132
599619097747718016,-193
599619097755404160,-108
599619097763090176,-24
599619097770776320,-4
599619097778462336,9
599619097786148480,-2
599619097793834496,-2
599619097801520640,14
599619097809206656,21
599619097816892800,24
599619097824578816,33
599619097832264960,38
599619097839950976,43
599619097847637120,50
599619097855323136,58
599619097863009280,60
599619097870695296,65
599619097878381312,70
599619097886067456,72
599619097893753472,77
599619097901439616,84
599619097909125632,87
599619097916811776,91
599619097924497792,101
599619097932183936,108
599619097939869952,116
599619097947556096,123
599619097955242112,128
599619097962928256,130
599619097970614272,132
599619097978300416,130
599619097985986432,120
599619097993672576,106
599619098001358592,79
599619098009044736,48
599619098016730752,19
599619098024416768,2
599619098032102912,-12
599619098039788928,-19
599619098047475072,-24
599619098055161088,-26
599619098062847232,-24
599619098070533248,-24
599619098078219392,-21
599619098085905408,-16
599619098093591552,-12
599619098101277568,-7
599619098108963712,-4
599619098116649794,-2
599619098124335488,2
599619098132021120,4
599619098139706752,9
599619098147392512,12
599619098155078144,14
599619098162763776,16
599619098170449408,21
599619098178135040,24
599619098185820800,29
599619098193506432,29
599619098201192064,26
599619098208877696,29
599619098216563328,31
599619098224249088,31
599619098231934720,31
599619098239620352,33
599619098247305984,33
599619098254991744,33
599619098262677376,36
599619098270363008,36
599619098278048640,36
599619098285734272,38
599619098293420032,36
599619098301105664,36
599619098308791296,38
599619098316476928,38
599619098324162560,41
599619098331848320,41
599619098339533952,43
599619098347219584,41
599619098354905216,43
599619098362590848,43
599619098370276608,43
599619098377962240,43
599619098385647872,45
599619098393333504,45
599619098401019136,45
599619098408704896,48
599619098416390528,48
599619098424076160,45
599619098431761792,48
599619098439447552,48
599619098447133184,45
599619098454818816,50
599619098462504448,53
599619098470190080,48
599619098477875840,48
599619098485561472,50
599619098493247104,53
599619098500932736,53
599619098508618368,50
599619098516304128,50
599619098523989760,48
599619098531675392,48
599619098539361024,43
599619098547046656,33
599619098554732416,38
599619098562418048,72
599619098570103680,103
599619098577789312,101
599619098585474944,91
599619098593160704,82
599619098600846336,60
599619098608531968,45
599619098616217600,48
599619098623903360,50
599619098631588992,48
599619098639274624,50
599619098646960256,50
599619098654645888,53
599619098662331648,55
599619098670017280,43
599619098677702876,-29
599619098685388800,-157
599619098693074688,-125
599619098700760576,282
599619098708446464,867
599619098716132224,1029
599619098723818112,502
599619098731504000,-118
599619098739189888,-229
599619098746875776,-89
599619098754561664,-31
599619098762247424,14
599619098769933312,33
599619098777619200,7
599619098785305088,16
599619098792990976,38
599619098800676864,38
599619098808362624,38
599619098816048512,48
599619098823734400,53
599619098831420288,58
599619098839106176,62
599619098846792064,65
599619098854477952,67
599619098862163712,74
599619098869849600,82
599619098877535488,87
599619098885221376,89
599619098892907264,96
599619098900593152,103
599619098908278912,108
599619098915964800,116
599619098923650688,125
599619098931336576,132
599619098939022464,137
599619098946708352,140
599619098954394112,145
599619098962080000,147
599619098969765888,145
599619098977451776,132
599619098985137664,108
599619098992823552,77
599619099000509440,43
599619099008195200,19
599619099015881088,2
599619099023566976,-12
599619099031252864,-19
599619099038938752,-21
599619099046624640,-19
599619099054310400,-19
599619099061996288,-19
599619099069682176,-14
599619099077368064,-12
599619099085053952,-9
599619099092739840,-4
599619099100425600,-2
599619099108111488,2
599619099115797376,7
599619099123483264,12
599619099131169152,14
599619099138855040,19
599619099146540800,21
599619099154226688,24
599619099161912576,26
599619099169598464,29
599619099177284352,33
599619099184970240,36
599619099192656128,38
599619099200341888,36
599619099208027776,36
599619099215713664,36
599619099223399552,38
599619099231085440,38
599619099238771219,38
599619099246457088,38
599619099254142976,41
599619099261828864,41
599619099269514752,41
599619099277200512,41
599619099284886400,41
599619099292572288,43
599619099300258176,45
599619099307944064,45
599619099315629952,43
599619099323315712,43
599619099331001600,45
599619099338687488,45
599619099346373376,45
599619099354059264,48
599619099361745152,48
599619099369430912,45
599619099377116800,48
599619099384802688,50
599619099392488576,48
599619099400174464,48
599619099407860352,50
599619099415546240,50
599619099423232000,48
599619099430917888,50
599619099438603776,50
599619099446289664,50
599619099453975552,50
599619099461661440,48
599619099469347200,48
599619099477033088,48
599619099484718976,45
599619099492404864,43
599619099500090752,33
599619099507776640,33
599619099515462400,70
599619099523148288,101
599619099530834176,94
599619099538520064,84
599619099546205952,79
599619099553891840,58
599619099561577728,41
599619099569263488,45
599619099576949376,50
599619099584635264,45
599619099592321152,45
599619099600007040,45
599619099607692928,45
599619099615378688,48
599619099623064576,45
599619099630750464,-14
599619099638436352,-147
599619099646122240,-171
599619099653808128,169
599619099661493888,766
599619099669179776,1068
599619099676865664,664
599619099684551552,-2
599619099692237440,-229
599619099699923328,-111
599619099707609088,-33
599619099715294976,-4
599619099722980864,14
599619099730666752,0
599619099738352640,2
599619099746038528,21
599619099753724416,24
599619099761410176,26
599619099769096064,36
599619099776781952,41
599619099784467840,45
599619099792153728,48
599619099799839562,55
599619099807525504,58
599619099815211392,62
599619099822897280,67
599619099830583168,72
599619099838268928,77
599619099845954816,84
599619099853640704,89
599619099861326592,94
599619099869012480,101
599619099876698368,111
599619099884384128,118
599619099892070016,123
599619099899755904,130
599619099907441792,132
599619099915127680,130
599619099922813568,128
599619099930499328,118
599619099938185216,96
599619099945871104,67
599619099953556992,33
599619099961242880,7
599619099968928768,-9
599619099976614656,-21
599619099984300416,-29
599619099991986304,-29
599619099999672192,-31
599619100007358080,-33
599619100015043968,-29
599619100022729856,-24
599619100030415616,-24
599619100038101504,-21
599619100045787392,-16
599619100053473280,-12
599619100061159168,-9
599619100068845056,-4
599619100076530816,0
599619100084216704,2
599619100091902592,4
599619100099588480,9
599619100107274368,12
599619100114960256,16
599619100122646144,19
599619100130331904,21
599619100138017792,24
599619100145703680,24
599619100153389568,26
599619100161075456,26
599619100168761344,26
599619100176447104,26
599619100184132992,29
599619100191818880,29
599619100199504768,29
599619100207190656,29
599619100214876544,31
599619100222562304,31
599619100230248192,33
599619100237934080,36
599619100245619968,33
599619100253305856,33
599619100260991744,36
599619100268677632,36
599619100276363392,36
599619100284049280,36
599619100291735168,38
599619100299421056,41
599619100307106944,38
599619100314792832,38
599619100322478592,41
599619100330164480,41
599619100337850368,38
599619100345536256,41
599619100353222144,43
599619100360907909,43
599619100368593792,41
599619100376279680,43
599619100383965568,43
599619100391651456,43
599619100399337216,43
599619100407023104,45
599619100414708992,43
599619100422394880,41
599619100430080768,43
599619100437766656,45
599619100445452416,43
599619100453138304,43
599619100460824192,45
599619100468510080,45
599619100476195968,48
599619100483881856,48
599619100491567616,48
599619100499253504,45
599619100506939392,45
599619100514625280,43
599619100522311168,41
599619100529997056,36
599619100537682944,26
599619100545368704,33
599619100553054592,74
599619100560740480,101
599619100568426368,94
599619100576112256,84
599619100583798144,77
599619100591483904,53
599619100599169792,36
599619100606855680,41
599619100614541568,50
599619100622227456,45
599619100629913344,43
599619100637599104,48
599619100645284992,50
599619100652970880,45
599619100660656768,24
599619100668342656,-74
599619100676028544,-195
599619100683714432,-62
599619100691400192,451
599619100699086080,1010
599619100706771968,1005
599619100714457856,369
599619100722143744,-149
599619100729829632,-161
599619100737515392,-45
599619100745201280,-19
599619100752887168,0
599619100760573056,0
599619100768258944,-9
599619100775944832,4
599619100783630592,16
599619100791316480,16
599619100799002368,24
599619100806688256,33
599619100814374144,38
599619100822060032,41
599619100829745792,48
599619100837431680,53
599619100845117568,55
599619100852803456,60
599619100860489344,65
599619100868175232,70
599619100875861120,77
599619100883546880,82
599619100891232768,84
599619100898918656,89
599619100906604544,96
599619100914290432,103
599619100921976252,111
599619100929662080,116
599619100937347968,120
599619100945033856,123
599619100952719744,123
599619100960405504,120
599619100968091392,108
599619100975777280,87
599619100983463168,55
599619100991149056,29
599619100998834944,7
599619101006520704,-9
599619101014206592,-21
599619101021892480,-26
599619101029578368,-29
599619101037264256,-29
599619101044950144,-26
599619101052635904,-24
599619101060321792,-21
599619101068007680,-19
599619101075693568,-16
599619101083379456,-12
599619101091065344,-7
599619101098751232,-4
599619101106436992,0
599619101114122880,2
599619101121808768,7
599619101129494656,9
599619101137180544,12
599619101144866432,16
599619101152552192,21
599619101160238080,19
599619101167923968,19
599619101175609856,21
599619101183295744,24
599619101190981632,26
599619101198667392,26
599619101206353280,26
599619101214039168,26
599619101221725056,29
599619101229410944,31
599619101237096832,29
599619101244782720,29
599619101252468480,31
599619101260154368,33
599619101267840256,33
599619101275526144,36
599619101283212032,33
599619101290897920,36
599619101298583680,36
599619101306269568,36
599619101313955456,38
599619101321641344,38
599619101329327232,38
599619101337013120,36
599619101344698880,36
599619101352384768,41
599619101360070656,43
599619101367756544,41
599619101375442432,41
599619101383128320,43
599619101390814080,43
599619101398499968,41
599619101406185856,41
599619101413871744,43
599619101421557632,45
599619101429243520,43
599619101436929408,45
599619101444615168,45
599619101452301056,43
599619101459986944,48
599619101467672832,53
599619101475358720,48
599619101483044595,41
599619101490730496,41
599619101498416384,38
599619101506102272,31
599619101513788160,45
599619101521473920,84
599619101529159808,101
599619101536845696,89
599619101544531584,82
599619101552217472,74
599619101559903360,53
599619101567589120,41
599619101575275008,43
599619101582960896,45
599619101590646784,45
599619101598332672,45
599619101606018560,48
599619101613704320,48
599619101621390208,48
599619101629076096,26
599619101636761984,-74
599619101644447872,-186
599619101652133760,-24
599619101659819648,505
599619101667505408,993
599619101675191296,870
599619101682877184,203
599619101690563072,-236
599619101698248960,-186
599619101705934848,-70
599619101713620608,-21
599619101721306496,31
599619101728992384,26
599619101736678272,4
599619101744364160,26
599619101752050048,41
599619101759735808,36
599619101767421696,43
599619101775107584,55
599619101782793472,55
599619101790479360,58
599619101798165248,62
599619101805851136,67
599619101813536896,74
599619101821222784,79
599619101828908672,84
599619101836594560,89
599619101844280448,96
599619101851966336,101
599619101859652096,108
599619101867337984,113
599619101875023872,123
599619101882709760,132
599619101890395648,140
599619101898081536,142
599619101905767296,147
599619101913453184,152
599619101921139072,149
599619101928824960,142
599619101936510848,128
599619101944196736,101
599619101951882496,65
599619101959568384,31
599619101967254272,9
599619101974940160,-4
599619101982626048,-16
599619101990311936,-26
599619101997997824,-26
599619102005683584,-24
599619102013369472,-24
599619102021055360,-21
599619102028741248,-16
599619102036427136,-14
599619102044112938,-12
599619102051798784,-9
599619102059484672,-4
599619102067170560,-2
599619102074856448,0
599619102082542208,4
599619102090228096,9
599619102097913984,14
599619102105599872,19
599619102113285760,21
599619102120971648,21
599619102128657408,26
599619102136343296,31
599619102144029184,31
599619102151715072,26
599619102159400960,26
599619102167086848,31
599619102174772608,33
599619102182458496,31
599619102190144384,33
599619102197830272,33
599619102205516160,33
599619102213202048,36
599619102220887936,36
599619102228573696,36
599619102236259584,36
599619102243945472,36
599619102251631360,36
599619102259317248,36
599619102267003136,38
599619102274688896,38
599619102282374784,38
599619102290060672,41
599619102297746560,41
599619102305432448,41
599619102313118336,41
599619102320804096,41
599619102328489984,43
599619102336175872,45
599619102343861760,41
599619102351547648,41
599619102359233536,43
599619102366919424,41
599619102374605184,41
599619102382291072,43
599619102389976960,41
599619102397662848,33
599619102405348736,24
599619102413034624,33
599619102420720384,74
599619102428406272,96
599619102436092160,87
599619102443778048,82
599619102451463936,72
599619102459149824,48
599619102466835584,33
599619102474521472,38
599619102482207360,38
599619102489893248,38
599619102497579136,41
599619102505265024,41
599619102512950784,41
599619102520636672,41
599619102528322560,29
599619102536008448,-55
599619102543694336,-186
599619102551380224,-113
599619102559066112,343
599619102566751872,918
599619102574437760,1010
599619102582123648,437
599619102589809536,-140
599619102597495424,-210
599619102605181281,-79
599619102612867200,-29
599619102620553088,2
599619102628238976,12
599619102635924864,-4
599619102643610624,2
599619102651296512,19
599619102658982400,19
599619102666668288,26
599619102674354176,33
599619102682040064,33
599619102689725824,38
599619102697411712,48
599619102705097600,53
599619102712783488,55
599619102720469376,60
599619102728155264,67
599619102735841024,72
599619102743526912,77
599619102751212800,79
599619102758898688,87
599619102766584576,96
599619102774270464,101
599619102781956352,108
599619102789642112,120
599619102797328000,128
599619102805013888,128
599619102812699776,128
599619102820385664,128
599619102828071552,125
599619102835757312,111
599619102843443200,84
599619102851129088,48
599619102858814976,16
599619102866500864,-4
599619102874186752,-21
599619102881872512,-33
599619102889558400,-38
599619102897244288,-38
599619102904930176,-38
599619102912616064,-38
599619102920301952,-36
599619102927987840,-33
599619102935673600,-29
599619102943359488,-26
599619102951045376,-24
599619102958731264,-19
599619102966417152,-16
599619102974103040,-12
599619102981788800,-7
599619102989474688,-2
599619102997160576,0
599619103004846464,2
599619103012532352,7
599619103020218240,12
599619103027904000,12
599619103035589888,12
599619103043275776,14
599619103050961664,16
599619103058647552,16
599619103066333440,19
599619103074019328,21
599619103081705088,21
599619103089390976,24
599619103097076864,21
599619103104762752,19
599619103112448640,24
599619103120134528,26
599619103127820288,26
599619103135506176,24
599619103143192064,26
599619103150877952,29
599619103158563840,29
599619103166249628,29
599619103173935488,31
599619103181621376,31
599619103189307264,31
599619103196993152,31
599619103204678912,31
599619103212364800,33
599619103220050688,36
599619103227736576,36
599619103235422464,36
599619103243108352,38
599619103250794112,38
599619103258480000,36
599619103266165888,36
599619103273851776,38
599619103281537664,41
599619103289223552,38
599619103296909312,38
599619103304595200,38
599619103312281088,38
599619103319966976,36
599619103327652864,29
599619103335338752,24
599619103343024640,38
599619103350710400,77
599619103358396288,96
599619103366082176,87
599619103373768064,79
599619103381453952,62
599619103389139840,38
599619103396825600,29
599619103404511488,38
599619103412197376,41
599619103419883264,36
599619103427569152,36
599619103435255040,38
599619103442940800,41
599619103450626688,38
599619103458312576,12
599619103465998464,-96
599619103473684352,-205
599619103481370240,-31
599619103489056128,514
599619103496741888,1039
599619103504427776,945
599619103512113664,280
599619103519799552,-183
599619103527485440,-152
599619103535171328,-43
599619103542857088,-19
599619103550542976,2
599619103558228864,-4
599619103565914752,-14
599619103573600640,4
599619103581286528,14
599619103588972288,16
599619103596658176,21
599619103604344064,29
599619103612029952,33
599619103619715840,36
599619103627401728,43
599619103635087488,50
599619103642773376,53
599619103650459264,55
599619103658145152,62
599619103665831040,67
599619103673516928,72
599619103681202816,77
599619103688888576,82
599619103696574464,87
599619103704260352,96
599619103711946240,103
599619103719632128,111
599619103727317971,116
599619103735003904,120
599619103742689792,123
599619103750375680,123
599619103758061568,113
599619103765747328,99
599619103773433216,74
599619103781119104,41
599619103788804992,9
599619103796490880,-9
599619103804176768,-21
599619103811862528,-33
599619103819548416,-38
599619103827234304,-38
599619103834920192,-36
599619103842606080,-33
599619103850291968,-31
599619103857977728,-29
599619103865663616,-26
599619103873349504,-21
599619103881035392,-16
599619103888721280,-14
599619103896407168,-12
599619103904093056,-4
599619103911778816,2
599619103919464704,7
599619103927150592,9
599619103934836480,14
599619103942522368,16
599619103950208256,19
599619103957894016,21
599619103965579904,24
599619103973265792,26
599619103980951680,24
599619103988637568,26
599619103996323456,26
599619104004009216,26
599619104011695104,29
599619104019380992,31
599619104027066880,29
599619104034752768,29
599619104042438656,29
599619104050124544,31
599619104057810304,29
599619104065496192,31
599619104073182080,33
599619104080867968,33
599619104088553856,33
599619104096239744,36
599619104103925504,36
599619104111611392,33
599619104119297280,36
599619104126983168,33
599619104134669056,33
599619104142354944,36
599619104150040704,36
599619104157726592,36
599619104165412480,38
599619104173098368,36
599619104180784256,33
599619104188470144,33
599619104196155904,31
599619104203841792,21
599619104211527680,26
599619104219213568,67
599619104226899456,94
599619104234585344,84
599619104242271232,79
599619104249956992,74
599619104257642880,50
599619104265328768,36
599619104273014656,43
599619104280700544,43
599619104288386314,38
599619104296072192,41
599619104303758080,43
599619104311443968,41
599619104319129856,41
599619104326815616,38
599619104334501504,-26
599619104342187392,-161
599619104349873280,-154
599619104357559168,229
599619104365245056,816
599619104372930816,1022
599619104380616704,519
599619104388302592,-120
599619104395988480,-251
599619104403674368,-111
599619104411360256,-48
599619104419046016,4
599619104426731904,31
599619104434417792,2
599619104442103680,7
599619104449789568,33
599619104457475456,33
599619104465161344,31
599619104472847104,41
599619104480532992,45
599619104488218880,48
599619104495904768,58
599619104503590656,62
599619104511276544,62
599619104518962304,67
599619104526648192,74
599619104534334080,79
599619104542019968,84
599619104549705856,91
599619104557391744,101
599619104565077504,106
599619104572763392,111
599619104580449280,120
599619104588135168,130
599619104595821056,137
599619104603506944,142
599619104611192832,147
599619104618878592,147
599619104626564480,142
599619104634250368,128
599619104641936256,99
599619104649622144,60
599619104657308032,24
599619104664993792,2
599619104672679680,-14
599619104680365568,-26
599619104688051456,-31
599619104695737344,-31
599619104703423232,-33
599619104711108992,-33
599619104718794880,-29
599619104726480768,-26
599619104734166656,-24
599619104741852544,-19
599619104749538432,-14
599619104757224192,-9
599619104764910080,-9
599619104772595968,-4
599619104780281856,2
599619104787967744,4
599619104795653632,7
599619104803339520,14
599619104811025280,19
599619104818711168,21
599619104826397056,24
599619104834082944,26
599619104841768832,26
599619104849454657,26
599619104857140608,31
599619104864826496,33
599619104872512384,31
599619104880198272,31
599619104887884032,38
599619104895569920,43
599619104903255808,43
599619104910941696,43
599619104918627584,48
599619104926313472,53
599619104933999232,50
599619104941685120,50
599619104949371008,53
599619104957056896,60
599619104964742784,72
599619104972428672,84
599619104980114432,82
599619104987800320,74
599619104995486208,72
599619105003172096,67
599619105010857984,60
599619105018543872,77
599619105026229760,113
599619105033915520,120
599619105041601408,113
599619105049287296,111
599619105056973184,94
599619105064659072,67
599619105072344960,65
599619105080030720,70
599619105087716608,70
599619105095402496,67
599619105103088384,72
599619105110774272,77
599619105118460160,72
599619105126145920,67
599619105133831808,55
599619105141517696,-14
599619105149203584,-145
599619105156889472,-108
599619105164575360,306
599619105172261248,872
599619105179947008,998
599619105187632896,447
599619105195318784,-142
599619105203004672,-219
599619105210690560,-84
599619105218376448,-29
599619105226062208,21
599619105233748096,38
599619105241433984,9
599619105249119872,16
599619105256805760,38
599619105264491648,33
599619105272177408,33
599619105279863296,43
599619105287549184,50
599619105295235072,50
599619105302920960,55
599619105310606848,60
599619105318292608,60
599619105325978496,65
599619105333664384,72
599619105341350272,77
599619105349036160,82
599619105356722048,87
599619105364407936,94
599619105372093696,101
599619105379779584,111
599619105387465472,125
599619105395151360,132
599619105402837248,137
599619105410523000,140
599619105418208896,142
599619105425894784,140
599619105433580672,132
599619105441266560,111
599619105448952320,74
599619105456638208,36
599619105464324096,7
599619105472009984,-12
599619105479695872,-29
599619105487381760,-41
599619105495067520,-45
599619105502753408,-43
599619105510439296,-41
599619105518125184,-41
599619105525811072,-38
599619105533496960,-36
599619105541182720,-33
599619105548868608,-33
599619105556554496,-29
599619105564240384,-26
599619105571926272,-21
599619105579612160,-16
599619105587298048,-14
599619105594983808,-12
599619105602669696,-4
599619105610355584,0
599619105618041472,2
599619105625727360,4
599619105633413248,7
599619105641099008,7
599619105648784896,7
599619105656470784,12
599619105664156672,12
599619105671842560,12
599619105679528448,12
599619105687214208,12
599619105694900096,14
599619105702585984,12
599619105710271872,12
599619105717957760,12
599619105725643648,14
599619105733329536,12
599619105741015296,12
599619105748701184,14
599619105756387072,14
599619105764072960,16
599619105771758848,16
599619105779444736,16
599619105787130496,14
599619105794816384,16
599619105802502272,19
599619105810188160,19
599619105817874048,19
599619105825559936,19
599619105833245696,19
599619105840931584,19
599619105848617472,19
599619105856303360,21
599619105863989248,24
599619105871675136,21
599619105879360896,19
599619105887046784,19
599619105894732672,16
599619105902418560,7
599619105910104448,7
599619105917790336,43
599619105925476224,79
599619105933161984,74
599619105940847872,65
599619105948533760,62
599619105956219648,43
599619105963905536,21
599619105971591343,21
599619105979277184,29
599619105986963072,26
599619105994648960,24
599619106002334848,21
599619106010020608,16
599619106017706496,16
599619106025392384,19
599619106033078272,-24
599619106040764160,-152
599619106048450048,-215
599619106056135808,58
599619106063821696,647
599619106071507584,1068
599619106079193472,795
599619106086879360,103
599619106094565248,-224
599619106102251008,-135
599619106109936896,-48
599619106117622784,-29
599619106125308672,-14
599619106132994560,-26
599619106140680448,-24
599619106148366336,-4
599619106156052096,0
599619106163737984,-7
599619106171423872,-2
599619106179109760,4
599619106186795648,2
599619106194481536,2
599619106202167296,7
599619106209853184,14
599619106217539072,21
599619106225224960,26
599619106232910848,29
599619106240596736,33
599619106248282496,41
599619106255968384,45
599619106263654272,53
599619106271340160,62
599619106279026048,67
599619106286711936,72
599619106294397824,79
599619106302083584,89
599619106309769472,94
599619106317455360,96
599619106325141248,91
599619106332827136,82
599619106340513024,65
599619106348198784,36
599619106355884672,4
599619106363570560,-24
599619106371256448,-41
599619106378942336,-53
599619106386628224,-62
599619106394313984,-67
599619106401999872,-65
599619106409685760,-62
599619106417371648,-60
599619106425057536,-55
599619106432743424,-53
599619106440429184,-45
599619106448115072,-41
599619106455800960,-38
599619106463486848,-33
599619106471172736,-29
599619106478858624,-26
599619106486544512,-19
599619106494230272,-14
599619106501916160,-12
599619106509602048,-12
599619106517287936,-9
599619106524973824,-2
599619106532659686,0
599619106540345600,0
599619106548031488,2
599619106555717376,4
599619106563403264,4
599619106571089024,7
599619106578774912,9
599619106586460800,9
599619106594146688,9
599619106601832576,12
599619106609518464,12
599619106617204224,14
599619106624890112,14
599619106632576000,16
599619106640261888,19
599619106647947776,21
599619106655633664,21
599619106663319424,21
599619106671005312,19
599619106678691200,24
599619106686377088,26
599619106694062976,26
599619106701748864,29
599619106709434752,31
599619106717120512,31
599619106724806400,31
599619106732492288,29
599619106740178176,26
599619106747864064,31
599619106755549952,31
599619106763235712,31
599619106770921600,33
599619106778607488,33
599619106786293376,33
599619106793979264,33
599619106801665152,31
599619106809350912,33
599619106817036800,36
599619106824722688,36
599619106832408576,36
599619106840094464,36
599619106847780352,36
599619106855466240,36
599619106863152000,38
599619106870837888,38
599619106878523776,38
599619106886209664,41
599619106893895552,38
599619106901581440,33
599619106909267200,24
599619106916953088,19
599619106924638976,50
599619106932324864,91
599619106940010752,94
599619106947696640,79
599619106955382400,79
599619106963068288,65
599619106970754176,36
599619106978440064,31
599619106986125952,41
599619106993811840,41
599619107001497728,38
599619107009183488,41
599619107016869376,38
599619107024555264,38
599619107032241152,41
599619107039927040,7
599619107047612928,-116
599619107055298688,-205
599619107062984576,16
599619107070670464,592
599619107078356352,1073
599619107086042240,884
599619107093728033,195
599619107101413888,-200
599619107109099776,-135
599619107116785664,-38
599619107124471552,-19
599619107132157312,-2
599619107139843200,-9
599619107147529088,-12
599619107155214976,4
599619107162900864,12
599619107170586752,14
599619107178272512,24
599619107185958400,31
599619107193644288,31
599619107201330176,38
599619107209016064,43
599619107216701952,45
599619107224387712,50
599619107232073600,55
599619107239759488,60
599619107247445376,65
599619107255131264,67
599619107262817152,72
599619107270503040,79
599619107278188800,84
599619107285874688,94
599619107293560576,99
599619107301246464,106
599619107308932352,111
599619107316618240,113
599619107324304000,116
599619107331989888,113
599619107339675776,108
599619107347361664,96
599619107355047552,72
599619107362733440,41
599619107370419200,12
599619107378105088,-7
599619107385790976,-19
599619107393476864,-29
599619107401162752,-33
599619107408848640,-33
599619107416534528,-36
599619107424220288,-36
599619107431906176,-31
599619107439592064,-26
599619107447277952,-24
599619107454963840,-19
599619107462649728,-16
599619107470335488,-14
599619107478021376,-9
599619107485707264,-4
599619107493393152,0
599619107501079040,2
599619107508764928,2
599619107516450688,4
599619107524136576,9
599619107531822464,12
599619107539508352,12
599619107547194240,14
599619107554880128,19
599619107562565888,21
599619107570251776,19
599619107577937664,19
599619107585623552,19
599619107593309440,21
599619107600995328,24
599619107608681216,26
599619107616366976,24
599619107624052864,24
599619107631738752,26
599619107639424640,29
599619107647110528,29
599619107654796376,26
599619107662482304,29
599619107670168192,29
599619107677854080,31
599619107685539968,33
599619107693225728,31
599619107700911616,31
599619107708597504,31
599619107716283392,33
599619107723969280,36
599619107731655168,33
599619107739340928,33
599619107747026816,36
599619107754712704,38
599619107762398592,38
599619107770084480,38
599619107777770368,38
599619107785456128,41
599619107793142016,38
599619107800827904,41
599619107808513792,41
599619107816199680,41
599619107823885568,38
599619107831571456,38
599619107839257216,41
599619107846943104,43
599619107854628992,43
599619107862314880,43
599619107870000768,43
599619107877686656,41
599619107885372416,41
599619107893058304,43
599619107900744192,41
599619107908430080,36
599619107916115968,36
599619107923801856,31
599619107931487616,26
599619107939173504,45
599619107946859392,84
599619107954545280,94
599619107962231168,84
599619107969917056,79
599619107977602944,62
599619107985288704,38
599619107992974592,36
599619108000660480,43
599619108008346368,43
599619108016032256,38
599619108023718144,41
599619108031403904,45
599619108039089792,48
599619108046775680,43
599619108054461568,9
599619108062147456,-103
599619108069833344,-188
599619108077519104,31
599619108085204992,592
599619108092890880,1027
599619108100576768,795
599619108108262656,108
599619108115948544,-256
599619108123634304,-169
599619108131320192,-65
599619108139006080,-19
599619108146691968,24
599619108154377856,12
599619108162063744,0
599619108169749632,24
599619108177435392,31
599619108185121280,29
599619108192807168,33
599619108200493056,43
599619108208178944,45
599619108215864719,50
599619108223550592,55
599619108231236480,60
599619108238922368,65
599619108246608256,67
599619108254294016,72
599619108261979904,79
599619108269665792,84
599619108277351680,89
599619108285037568,96
599619108292723456,101
599619108300409216,108
599619108308095104,118
599619108315780992,125
599619108323466880,132
599619108331152768,135
599619108338838656,137
599619108346524416,137
599619108354210304,132
599619108361896192,113
599619108369582080,84
599619108377267968,53
599619108384953856,21
599619108392639744,2
599619108400325504,-12
599619108408011392,-21
599619108415697280,-31
599619108423383168,-33
599619108431069056,-29
599619108438754944,-29
599619108446440704,-29
599619108454126592,-24
599619108461812480,-19
599619108469498368,-16
599619108477184256,-14
599619108484870144,-9
599619108492555904,-4
599619108500241792,-2
599619108507927680,2
599619108515613568,9
599619108523299456,14
599619108530985344,14
599619108538671232,14
599619108546356992,19
599619108554042880,24
599619108561728768,24
599619108569414656,24
599619108577100544,24
599619108584786432,29
599619108592472192,31
599619108600158080,33
599619108607843968,31
599619108615529856,29
599619108623215744,29
599619108630901632,31
599619108638587392,33
599619108646273280,31
599619108653959168,29
599619108661645056,29
599619108669330944,31
599619108677016832,33
599619108684702592,33
599619108692388480,31
599619108700074368,36
599619108707760256,38
599619108715446144,36
599619108723132032,33
599619108730817920,36
599619108738503680,36
599619108746189568,36
599619108753875456,36
599619108761561344,38
599619108769247232,38
599619108776933062,38
599619108784619008,38
599619108792304896,38
599619108799990784,38
599619108807676672,38
599619108815362432,38
599619108823048320,38
599619108830734208,38
599619108838420096,36
599619108846105984,36
599619108853791872,41
599619108861477632,38
599619108869163520,36
599619108876849408,38
599619108884535296,41
599619108892221184,41
599619108899907072,38
599619108907592832,36
599619108915278720,38
599619108922964608,36
599619108930650496,26
599619108938336384,16
599619108946022272,29
599619108953708160,70
599619108961393920,89
599619108969079808,77
599619108976765696,72
599619108984451584,65
599619108992137472,41
599619108999823360,24
599619109007509120,33
599619109015195008,38
599619109022880896,36
599619109030566784,33
599619109038252672,33
599619109045938560,36
599619109053624320,38
599619109061310208,19
599619109068996096,-74
599619109076681984,-200
599619109084367872,-91
599619109092053760,398
599619109099739648,954
599619109107425408,976
599619109115111296,367
599619109122797184,-169
599619109130483072,-198
599619109138168960,-70
599619109145854848,-31
599619109153540608,-9
599619109161226496,-7
599619109168912384,-19
599619109176598272,-7
599619109184284160,7
599619109191970048,9
599619109199655808,12
599619109207341696,19
599619109215027584,21
599619109222713472,26
599619109230399360,31
599619109238085248,33
599619109245771008,36
599619109253456896,41
599619109261142784,45
599619109268828672,48
599619109276514560,53
599619109284200448,60
599619109291886336,65
599619109299572096,70
599619109307257984,77
599619109314943872,87
599619109322629760,94
599619109330315648,99
599619109338001405,101
599619109345687296,106
599619109353373184,106
599619109361059072,101
599619109368744960,91
599619109376430720,70
599619109384116608,36
599619109391802496,4
599619109399488384,-12
599619109407174272,-26
599619109414860160,-41
599619109422545920,-45
599619109430231808,-43
599619109437917696,-45
599619109445603584,-45
599619109453289472,-41
599619109460975360,-38
599619109468661120,-38
599619109476347008,-33
599619109484032896,-26
599619109491718784,-21
599619109499404672,-19
599619109507090560,-14
599619109514776448,-12
599619109522462208,-9
599619109530148096,-4
599619109537833984,0
599619109545519872,2
599619109553205760,7
599619109560891648,9
599619109568577408,9
599619109576263296,12
599619109583949184,14
599619109591635072,16
599619109599320960,19
599619109607006848,21
599619109614692608,24
599619109622378496,26
599619109630064384,24
599619109637750272,24
599619109645436160,24
599619109653122048,24
599619109660807936,26
599619109668493696,29
599619109676179584,29
599619109683865472,29
599619109691551360,29
599619109699237248,33
599619109706923136,36
599619109714608896,38
599619109722294784,38
599619109729980672,36
599619109737666560,33
599619109745352448,36
599619109753038336,41
599619109760724096,41
599619109768409984,38
599619109776095872,36
599619109783781760,38
599619109791467648,41
599619109799153536,38
599619109806839296,38
599619109814525184,43
599619109822211072,43
599619109829896960,38
599619109837582848,38
599619109845268736,41
599619109852954624,41
599619109860640384,41
599619109868326272,43
599619109876012160,41
599619109883698048,36
599619109891383936,33
599619109899069748,36
599619109906755584,29
599619109914441472,16
599619109922127360,36
599619109929813248,79
599619109937499008,94
599619109945184896,79
599619109952870784,74
599619109960556672,62
599619109968242560,36
599619109975928448,29
599619109983614208,38
599619109991300096,36
599619109998985984,31
599619110006671872,31
599619110014357760,38
599619110022043648,41
599619110029729408,36
599619110037415296,4
599619110045101184,-108
599619110052787072,-195
599619110060472960,26
599619110068158848,599
599619110075844736,1080
599619110083530496,894
599619110091216384,207
599619110098902272,-190
599619110106588160,-125
599619110114274048,-24
599619110121959936,-2
599619110129645696,14
599619110137331584,4
599619110145017472,0
599619110152703360,16
599619110160389248,26
599619110168075136,26
599619110175760896,33
599619110183446784,38
599619110191132672,41
599619110198818560,45
599619110206504448,53
599619110214190336,55
599619110221876224,60
599619110229561984,62
599619110237247872,67
599619110244933760,74
599619110252619648,79
599619110260305536,84
599619110267991424,89
599619110275677184,96
599619110283363072,103
599619110291048960,111
599619110298734848,116
599619110306420736,120
599619110314106624,125
599619110321792384,130
599619110329478272,130
599619110337164160,123
599619110344850048,108
599619110352535936,79
599619110360221824,45
599619110367907712,16
599619110375593472,-4
599619110383279360,-21
599619110390965248,-33
599619110398651136,-38
599619110406337024,-41
599619110414022912,-38
599619110421708672,-38
599619110429394560,-38
599619110437080448,-36
599619110444766336,-31
599619110452452224,-26
599619110460138095,-24
599619110467824000,-21
599619110475509888,-16
599619110483195776,-9
599619110490881664,-4
599619110498567424,2
599619110506253312,9
599619110513939200,9
599619110521625088,7
599619110529310976,14
599619110536996864,19
599619110544682624,19
599619110552368512,19
599619110560054400,21
599619110567740288,21
599619110575426176,24
599619110583112064,26
599619110590797824,24
599619110598483712,24
599619110606169600,29
599619110613855488,29
599619110621541376,26
599619110629227264,29
599619110636913152,31
599619110644598912,31
599619110652284800,29
599619110659970688,29
599619110667656576,29
599619110675342464,31
599619110683028352,31
599619110690714112,31
599619110698400000,33
599619110706085888,33
599619110713771776,31
599619110721457664,31
599619110729143552,29
599619110736829312,24
599619110744515200,24
599619110752201088,19
599619110759886976,16
599619110767572864,43
599619110775258752,79
599619110782944640,82
599619110790630400,74
599619110798316288,72
599619110806002176,50
599619110813688064,26
599619110821373952,29
599619110829059840,38
599619110836745600,36
599619110844431488,33
599619110852117376,36
599619110859803264,36
599619110867489152,36
599619110875175040,36
599619110882860800,0
599619110890546688,-120
599619110898232576,-188
599619110905918464,74
599619110913604352,630
599619110921290240,988
599619110928976000,667
599619110936661888,-12
599619110944347776,-282
599619110952033664,-166
599619110959719552,-82
599619110967405440,-16
599619110975091328,38
599619110982777088,14
599619110990462976,2
599619110998148864,29
599619111005834752,33
599619111013520640,31
599619111021206438,38
599619111028892288,43
599619111036578176,45
599619111044264064,53
599619111051949952,58
599619111059635712,62
599619111067321600,67
599619111075007488,74
599619111082693376,79
599619111090379264,84
599619111098065152,91
599619111105750912,99
599619111113436800,106
599619111121122688,116
599619111128808576,123
599619111136494464,130
599619111144180352,140
599619111151866112,149
599619111159552000,154
599619111167237888,152
599619111174923776,149
599619111182609664,137
599619111190295552,106
599619111197981440,65
599619111205667200,26
599619111213353088,0
599619111221038976,-19
599619111228724864,-36
599619111236410752,-43
599619111244096640,-41
599619111251782400,-36
599619111259468288,-33
599619111267154176,-38
599619111274840064,-36
599619111282525952,-31
599619111290211840,-29
599619111297897600,-29
599619111305583488,-24
599619111313269376,-21
599619111320955264,-16
599619111328641152,-14
599619111336327040,-9
599619111344012928,-4
599619111351698688,-2
599619111359384576,0
599619111367070464,2
599619111374756352,7
599619111382442240,7
599619111390128128,4
599619111397813888,7
599619111405499776,9
599619111413185664,12
599619111420871552,9
599619111428557440,9
599619111436243328,9
599619111443929088,12
599619111451614976,12
599619111459300864,9
599619111466986752,12
599619111474672640,14
599619111482358528,12
599619111490044288,14
599619111497730176,16
599619111505416064,16
599619111513101952,16
599619111520787840,16
599619111528473728,21
599619111536159616,21
599619111543845376,16
599619111551531264,14
599619111559217152,14
599619111566903040,9
599619111574588928,2
599619111582274781,0
599619111589960704,29
599619111597646592,67
599619111605332480,67
599619111613018368,58
599619111620704128,58
599619111628390016,38
599619111636075904,12
599619111643761792,12
599619111651447680,19
599619111659133568,19
599619111666819328,14
599619111674505216,19
599619111682191104,19
599619111689876992,19
599619111697562880,16
599619111705248768,-14
599619111712934528,-130
599619111720620416,-217
599619111728306304,2
599619111735992192,558
599619111743678080,1000
599619111751363968,785
599619111759049856,103
599619111766735616,-265
599619111774421504,-181
599619111782107392,-70
599619111789793280,-31
599619111797479168,-2
599619111805165056,-16
599619111812850816,-24
599619111820536704,-2
599619111828222592,4
599619111835908480,2
599619111843594368,12
599619111851280256,16
599619111858966016,21
599619111866651904,29
599619111874337792,33
599619111882023680,36
599619111889709568,41
599619111897395456,45
599619111905081344,50
599619111912767104,58
599619111920452992,65
599619111928138880,70
599619111935824768,77
599619111943510656,84
599619111951196544,91
599619111958882304,103
599619111966568192,113
599619111974254080,113
599619111981939968,118
599619111989625856,123
599619111997311744,118
599619112004997504,103
599619112012683392,79
599619112020369280,48
599619112028055168,12
599619112035741056,-14
599619112043426944,-36
599619112051112704,-50
599619112058798592,-55
599619112066484480,-55
599619112074170368,-55
599619112081856256,-55
599619112089542144,-53
599619112097228032,-48
599619112104913792,-45
599619112112599680,-45
599619112120285568,-41
599619112127971456,-36
599619112135657344,-31
599619112143343124,-29
599619112151028992,-24
599619112158714880,-19
599619112166400768,-16
599619112174086656,-12
599619112181772416,-7
599619112189458304,-4
599619112197144192,-4
599619112204830080,-2
599619112212515968,0
599619112220201856,2
599619112227887616,2
599619112235573504,4
599619112243259392,4
599619112250945280,4
599619112258631168,9
599619112266317056,9
599619112274002816,4
599619112281688704,7
599619112289374592,9
599619112297060480,9
599619112304746368,12
599619112312432256,14
599619112320118144,12
599619112327803904,12
599619112335489792,16
599619112343175680,16
599619112350861568,14
599619112358547456,14
599619112366233344,16
599619112373919104,16
599619112381604992,14
599619112389290880,12
599619112396976768,9
599619112404662656,2
599619112412348544,-2
599619112420034304,24
599619112427720192,65
599619112435406080,67
599619112443091968,60
599619112450777856,62
599619112458463744,43
599619112466149632,16
599619112473835392,14
599619112481521280,21
599619112489207168,21
599619112496893056,19
599619112504578944,19
599619112512264832,19
599619112519950592,21
599619112527636480,21
599619112535322368,-9
599619112543008256,-123
599619112550694144,-219
599619112558380032,-21
599619112566065792,534
599619112573751680,1029
599619112581437568,877
599619112589123456,193
599619112596809344,-227
599619112604495232,-166
599619112612180992,-55
599619112619866880,-31
599619112627552768,-16
599619112635238656,-24
599619112642924544,-26
599619112650610432,-9
599619112658296320,2
599619112665982080,2
599619112673667968,7
599619112681353856,14
599619112689039744,21
599619112696725632,26
599619112704411467,31
599619112712097408,36
599619112719783296,41
599619112727469184,45
599619112735155072,50
599619112742840832,58
599619112750526720,62
599619112758212608,70
599619112765898496,79
599619112773584384,87
599619112781270272,94
599619112788956032,101
599619112796641920,111
599619112804327808,118
599619112812013696,120
599619112819699584,123
599619112827385472,120
599619112835071232,111
599619112842757120,84
599619112850443008,48
599619112858128896,14
599619112865814784,-12
599619112873500672,-31
599619112881186560,-45
599619112888872320,-53
599619112896558208,-55
599619112904244096,-55
599619112911929984,-53
599619112919615872,-50
599619112927301760,-48
599619112934987520,-43
599619112942673408,-41
599619112950359296,-38
599619112958045184,-36
599619112965731072,-31
599619112973416960,-29
599619112981102720,-21
599619112988788608,-19
599619112996474496,-16
599619113004160384,-12
599619113011846272,-7
599619113019532160,-4
599619113027218048,-4
599619113034903808,0
599619113042589696,4
599619113050275584,4
599619113057961472,4
599619113065647360,4
599619113073333248,7
599619113081019008,7
599619113088704896,7
599619113096390784,7
599619113104076672,9
599619113111762560,12
599619113119448448,12
599619113127134208,12
599619113134820096,14
599619113142505984,14
599619113150191872,16
599619113157877760,19
599619113165563648,16
599619113173249408,16
599619113180935296,19
599619113188621184,16
599619113196307072,19
599619113203992960,21
599619113211678848,21
599619113219364736,21
599619113227050496,21
599619113234736384,24
599619113242422272,24
599619113250108160,21
599619113257794048,21
599619113265479810,26
599619113273165696,26
599619113280851584,24
599619113288537600,24
599619113296223488,26
599619113303909504,26
599619113311595392,24
599619113319281280,21
599619113326967296,21
599619113334653184,19
599619113342339072,9
599619113350025088,21
599619113357710976,62
599619113365396992,84
599619113373082880,72
599619113380768768,65
599619113388454784,55
599619113396140672,31
599619113403826688,21
599619113411512576,26
599619113419198464,29
599619113426884480,26
599619113434570368,26
599619113442256256,29
599619113449942272,29
599619113457628160,26
599619113465314176,16
599619113473000064,-60
599619113480685952,-193
599619113488371968,-128
599619113496057856,326
599619113503743872,899
599619113511429760,986
599619113519115648,396
599619113526801664,-193
599619113534487552,-246
599619113542173568,-99
599619113549859456,-48
599619113557545344,-4
599619113565231360,12
599619113572917248,-14
599619113580603136,-2
599619113588289152,21
599619113595975040,19
599619113603661056,21
599619113611346944,31
599619113619032832,33
599619113626718848,36
599619113634404736,43
599619113642090752,48
599619113649776640,50
599619113657462528,58
599619113665148544,65
599619113672834432,67
599619113680520320,72
599619113688206336,79
599619113695892224,87
599619113703578240,94
599619113711264128,101
599619113718950016,111
599619113726636032,118
599619113734321920,125
599619113742007936,130
599619113749693824,132
599619113757379712,135
599619113765065728,130
599619113772751616,116
599619113780437504,87
599619113788123520,50
599619113795809408,16
599619113803495424,-7
599619113811181312,-24
599619113818867200,-36
599619113826553244,-41
599619113834239488,-43
599619113841925760,-41
599619113849611904,-41
599619113857298176,-41
599619113864984320,-33
599619113872670592,-31
599619113880356736,-29
599619113888043008,-26
599619113895729280,-21
599619113903415424,-16
599619113911101696,-12
599619113918787840,-12
599619113926474112,-4
599619113934160256,0
599619113941846528,2
599619113949532672,4
599619113957218944,9
599619113964905216,9
599619113972591360,9
599619113980277632,12
599619113987963776,14
599619113995650048,16
599619114003336192,19
599619114011022464,16
599619114018708736,14
599619114026394880,16
599619114034081152,21
599619114041767296,21
599619114049453568,19
599619114057139712,19
599619114064825984,21
599619114072512128,21
599619114080198400,21
599619114087884672,19
599619114095570816,21
599619114103257088,26
599619114110943232,26
599619114118629504,26
599619114126315648,26
599619114134001920,26
599619114141688192,26
599619114149374336,29
599619114157060608,29
599619114164746752,29
599619114172433024,31
599619114180119168,29
599619114187805440,29
599619114195491584,31
599619114203177856,33
599619114210864128,33
599619114218550272,31
599619114226236544,31
599619114233922688,33
599619114241608960,31
599619114249295104,29
599619114256981376,26
599619114264667648,26
599619114272353792,19
599619114280040064,21
599619114287726208,53
599619114295412480,84
599619114303098624,79
599619114310784896,67
599619114318471040,62
599619114326157312,43
599619114333843584,26
599619114341529728,26
599619114349216000,31
599619114356902144,31
599619114364588416,31
599619114372274560,36
599619114379960832,38
599619114387647018,33
599619114395332864,31
599619114403018752,-12
599619114410704640,-135
599619114418390528,-183
599619114426076288,118
599619114433762176,686
599619114441448064,990
599619114449133952,606
599619114456819840,-53
599619114464505728,-268
599619114472191488,-135
599619114479877376,-60
599619114487563264,-9
599619114495249152,33
599619114502935040,7
599619114510620928,0
599619114518306688,26
599619114525992576,29
599619114533678464,24
599619114541364352,33
599619114549050240,38
599619114556736128,41
599619114564422016,45
599619114572107776,50
599619114579793664,55
599619114587479552,58
599619114595165440,62
599619114602851328,70
599619114610537216,74
599619114618222976,79
599619114625908864,84
599619114633594752,91
599619114641280640,99
599619114648966528,108
599619114656652416,118
599619114664338176,125
599619114672024064,132
599619114679709952,135
599619114687395840,137
599619114695081728,132
599619114702767616,118
599619114710453504,94
599619114718139264,58
599619114725825152,24
599619114733511040,-2
599619114741196928,-24
599619114748882816,-38
599619114756568704,-45
599619114764254464,-48
599619114771940352,-48
599619114779626240,-45
599619114787312128,-48
599619114794998016,-45
599619114802683904,-41
599619114810369664,-41
599619114818055552,-36
599619114825741440,-29
599619114833427328,-26
599619114841113216,-24
599619114848799104,-21
599619114856484864,-14
599619114864170752,-12
599619114871856640,-7
599619114879542528,-4
599619114887228416,-2
599619114894914304,0
599619114902600192,2
599619114910285952,4
599619114917971840,7
599619114925657728,7
599619114933343616,7
599619114941029504,7
599619114948715361,7
599619114956401152,7
599619114964086912,9
599619114971772672,9
599619114979458304,9
599619114987144064,7
599619114994829824,9
599619115002515584,12
599619115010201216,12
599619115017886976,14
599619115025572736,14
599619115033258496,14
599619115040944128,14
599619115048629888,16
599619115056315648,16
599619115064001408,19
599619115071687040,16
599619115079372800,16
599619115087058560,16
599619115094744320,19
599619115102429952,21
599619115110115712,24
599619115117801472,24
599619115125487232,26
599619115133172864,24
599619115140858624,24
599619115148544384,24
599619115156230144,24
599619115163915776,21
599619115171601536,24
599619115179287296,26
599619115186973056,24
599619115194658688,24
599619115202344448,26
599619115210030208,26
599619115217715968,26
599619115225401600,26
599619115233087360,26
599619115240773120,26
599619115248458880,26
599619115256144512,29
599619115263830272,29
599619115271516032,26
599619115279201792,24
599619115286887424,21
599619115294573184,21
599619115302258944,12
599619115309944704,4
599619115317630336,29
599619115325316096,70
599619115333001856,77
599619115340687616,62
599619115348373248,60
599619115356059008,53
599619115363744768,26
599619115371430528,16
599619115379116160,24
599619115386801920,26
599619115394487680,21
599619115402173440,26
599619115409859072,29
599619115417544832,26
599619115425230592,24
599619115432916352,-16
599619115440601984,-142
599619115448287744,-212
599619115455973504,50
599619115463659264,633
599619115471344896,1048
599619115479030656,787
599619115486716416,103
599619115494402176,-236
599619115502087808,-145
599619115509773534,-53
599619115517459200,-36
599619115525144832,-14
599619115532830336,-21
599619115540515968,-24
599619115548201600,-7
599619115555887104,0
599619115563572736,0
599619115571258368,9
599619115578943872,16
599619115586629504,19
599619115594315136,21
599619115602000640,29
599619115609686272,36
599619115617371904,38
599619115625057408,41
599619115632743040,48
599619115640428672,55
599619115648114176,58
599619115655799808,62
599619115663485440,72
599619115671170944,79
599619115678856576,87
599619115686542208,94
599619115694227712,103
599619115701913344,111
599619115709598976,113
599619115717284480,116
599619115724970112,113
599619115732655744,106
599619115740341248,91
599619115748026880,65
599619115755712512,29
599619115763398016,0
599619115771083648,-19
599619115778769280,-33
599619115786454784,-43
599619115794140416,-45
599619115801826048,-48
599619115809511552,-48
599619115817197184,-45
599619115824882816,-43
599619115832568320,-41
599619115840253952,-36
599619115847939584,-33
599619115855625088,-29
599619115863310720,-26
599619115870996352,-24
599619115878681856,-21
599619115886367488,-16
599619115894053120,-14
599619115901738624,-12
599619115909424256,-7
599619115917109888,-7
599619115924795392,-4
599619115932481024,0
599619115940166656,2
599619115947852160,2
599619115955537792,2
599619115963223424,4
599619115970908928,7
599619115978594560,9
599619115986280064,9
599619115993965696,9
599619116001651328,12
599619116009336832,12
599619116017022464,12
599619116024708096,12
599619116032393600,14
599619116040079232,14
599619116047764864,14
599619116055450368,16
599619116063136000,16
599619116070821529,16
599619116078507392,16
599619116086193280,19
599619116093879168,19
599619116101565056,19
599619116109250816,21
599619116116936704,24
599619116124622592,21
599619116132308480,21
599619116139994368,26
599619116147680256,26
599619116155366016,24
599619116163051904,24
599619116170737792,26
599619116178423680,26
599619116186109568,24
599619116193795456,26
599619116201481216,29
599619116209167104,29
599619116216852992,26
599619116224538880,24
599619116232224768,24
599619116239910656,21
599619116247596544,12
599619116255282304,4
599619116262968192,29
599619116270654080,70
599619116278339968,82
599619116286025856,67
599619116293711744,62
599619116301397504,55
599619116309083392,29
599619116316769280,19
599619116324455168,29
599619116332141056,29
599619116339826944,21
599619116347512704,24
599619116355198592,29
599619116362884480,26
599619116370570368,24
599619116378256256,-16
599619116385942144,-137
599619116393628032,-205
599619116401313792,58
599619116408999680,640
599619116416685568,1051
599619116424371456,771
599619116432057344,79
599619116439743232,-248
599619116447428992,-145
599619116455114880,-45
599619116462800768,-26
599619116470486656,-9
599619116478172544,-16
599619116485858432,-19
599619116493544192,-2
599619116501230080,4
599619116508915968,7
599619116516601856,16
599619116524287744,19
599619116531973632,24
599619116539659392,31
599619116547345280,38
599619116555031168,41
599619116562717056,45
599619116570402944,53
599619116578088832,55
599619116585774720,62
599619116593460480,70
599619116601146368,74
599619116608832256,84
599619116616518144,89
599619116624204032,99
599619116631889872,108
599619116639575808,116
599619116647261696,125
599619116654947584,130
599619116662633472,132
599619116670319232,130
599619116678005120,120
599619116685691008,99
599619116693376896,62
599619116701062784,24
599619116708748672,-4
599619116716434432,-26
599619116724120320,-41
599619116731806208,-50
599619116739492096,-55
599619116747177984,-53
599619116754863872,-50
599619116762549632,-48
599619116770235520,-48
599619116777921408,-45
599619116785607296,-41
599619116793293184,-38
599619116800979072,-36
599619116808664960,-31
599619116816350720,-24
599619116824036608,-24
599619116831722496,-16
599619116839408384,-12
599619116847094272,-9
599619116854780160,-7
599619116862465920,-2
599619116870151808,2
599619116877837696,4
599619116885523584,4
599619116893209472,4
599619116900895360,7
599619116908581120,12
599619116916267008,9
599619116923952896,9
599619116931638784,9
599619116939324672,12
599619116947010560,12
599619116954696448,12
599619116962382208,12
599619116970068096,14
599619116977753984,14
599619116985439872,14
599619116993125760,16
599619117000811648,16
599619117008497408,19
599619117016183296,19
599619117023869184,16
599619117031555072,14
599619117039240960,12
599619117046926848,9
599619117054612608,2
599619117062298496,-2
599619117069984384,29
599619117077670272,70
599619117085356160,70
599619117093042048,60
599619117100727936,60
599619117108413696,38
599619117116099584,14
599619117123785472,16
599619117131471360,24
599619117139157248,19
599619117146843136,19
599619117154528896,21
599619117162214784,24
599619117169900672,21
599619117177586560,19
599619117185272448,-24
599619117192958219,-149
599619117200644224,-212
599619117208330240,65
599619117216016256,662
599619117223702272,1063
599619117231388288,751
599619117239074304,45
599619117246760320,-261
599619117254446336,-145
599619117262132224,-45
599619117269818240,-19
599619117277504256,-7
599619117285190272,-19
599619117292876288,-16
599619117300562304,2
599619117308248320,4
599619117315934336,7
599619117323620352,16
599619117331306368,24
599619117338992384,26
599619117346678400,33
599619117354364416,41
599619117362050432,45
599619117369736320,50
599619117377422336,58
599619117385108352,65
599619117392794368,67
599619117400480384,74
599619117408166400,84
599619117415852416,91
599619117423538432,101
599619117431224448,111
599619117438910464,123
599619117446596480,132
599619117454282496,140
599619117461968512,142
599619117469654528,142
599619117477340416,137
599619117485026432,120
599619117492712448,87
599619117500398464,43
599619117508084480,7
599619117515770496,-19
599619117523456512,-36
599619117531142528,-50
599619117538828544,-55
599619117546514560,-58
599619117554200576,-55
599619117561886592,-53
599619117569572608,-50
599619117577258624,-50
599619117584944640,-50
599619117592630528,-45
599619117600316544,-41
599619117608002560,-38
599619117615688576,-36
599619117623374592,-29
599619117631060608,-24
599619117638746624,-19
599619117646432640,-12
599619117654118656,-9
599619117661804672,-7
599619117669490688,-2
599619117677176704,2
599619117684862720,2
599619117692548736,4
599619117700234624,4
599619117707920640,7
599619117715606656,9
599619117723292672,9
599619117730978688,9
599619117738664704,7
599619117746350720,9
599619117754036736,9
599619117761722496,12
599619117769408256,14
599619117777094016,14
599619117784779648,14
599619117792465408,14
599619117800151168,16
599619117807836928,16
599619117815522560,16
599619117823208320,16
599619117830894080,19
599619117838579840,21
599619117846265472,21
599619117853951232,21
599619117861636992,24
599619117869322752,24
599619117877008384,24
599619117884694144,21
599619117892379904,24
599619117900065664,26
599619117907751296,24
599619117915437056,24
599619117923122816,26
599619117930808576,29
599619117938494208,26
599619117946179968,29
599619117953865728,29
599619117961551488,29
599619117969237120,29
599619117976922880,29
599619117984608640,26
599619117992294400,26
599619117999980032,31
599619118007665792,33
599619118015351552,29
599619118023037312,31
599619118030722944,31
599619118038408704,29
599619118046094464,26
599619118053780224,24
599619118061465856,19
599619118069151616,14
599619118076837376,26
599619118084523136,65
599619118092208768,84
599619118099894528,74
599619118107580288,70
599619118115266048,60
599619118122951680,36
599619118130637440,21
599619118138323200,31
599619118146008960,33
599619118153694592,31
599619118161380352,31
599619118169066112,31
599619118176751872,31
599619118184437504,33
599619118192123264,14
599619118199809024,-84
599619118207494784,-203
599619118215180416,-70
599619118222866176,435
599619118230551936,957
599619118238237696,906
599619118245923328,258
599619118253609088,-234
599619118261294848,-217
599619118268980608,-91
599619118276666240,-48
599619118284352000,4
599619118292037760,12
599619118299723520,-12
599619118307409152,4
599619118315094905,21
599619118322780800,19
599619118330466688,24
599619118338152576,31
599619118345838464,31
599619118353524224,36
599619118361210112,43
599619118368896000,48
599619118376581888,50
599619118384267776,58
599619118391953664,62
599619118399639424,65
599619118407325312,70
599619118415011200,74
599619118422697088,79
599619118430382976,89
599619118438068864,94
599619118445754624,101
599619118453440512,108
599619118461126400,116
599619118468812288,118
599619118476498176,120
599619118484184064,123
599619118491869952,120
599619118499555712,108
599619118507241600,84
599619118514927488,50
599619118522613376,16
599619118530299264,-4
599619118537985152,-16
599619118545670912,-31
599619118553356800,-38
599619118561042688,-38
599619118568728576,-38
599619118576414464,-38
599619118584100352,-38
599619118591786112,-33
599619118599472000,-31
599619118607157888,-26
599619118614843776,-24
599619118622529664,-21
599619118630215552,-16
599619118637901440,-12
599619118645587200,-7
599619118653273088,-2
599619118660958976,0
599619118668644864,2
599619118676330752,4
599619118684016640,7
599619118691702400,7
599619118699388288,9
599619118707074176,14
599619118714760064,14
599619118722445952,14
599619118730131840,16
599619118737817600,19
599619118745503488,16
599619118753189376,16
599619118760875264,19
599619118768561152,19
599619118776247040,19
599619118783932800,19
599619118791618688,21
599619118799304576,24
599619118806990464,24
599619118814676352,24
599619118822362240,26
599619118830048128,26
599619118837733888,26
599619118845419776,26
599619118853105664,29
599619118860791552,29
599619118868477440,29
599619118876163248,26
599619118883849088,29
599619118891534976,29
599619118899220864,29
599619118906906752,29
599619118914592512,31
599619118922278400,29
599619118929964288,26
599619118937650176,31
599619118945336064,33
599619118953021952,31
599619118960707712,29
599619118968393600,31
599619118976079488,31
599619118983765376,31
599619118991451264,33
599619118999137152,33
599619119006822912,31
599619119014508800,29
599619119022194688,33
599619119029880576,36
599619119037566464,33
599619119045252352,33
599619119052938240,33
599619119060624000,33
599619119068309888,33
599619119075995776,33
599619119083681664,33
599619119091367552,31
599619119099053440,24
599619119106739200,12
599619119114425088,21
599619119122110976,58
599619119129796864,79
599619119137482752,74
599619119145168640,67
599619119152854400,60
599619119160540288,38
599619119168226176,24
599619119175912064,33
599619119183597952,36
599619119191283840,31
599619119198969728,31
599619119206655488,33
599619119214341376,36
599619119222027264,33
599619119229713152,12
599619119237399040,-79
599619119245084928,-188
599619119252770688,-70
599619119260456576,391
599619119268142464,884
599619119275828352,874
599619119283514240,306
599619119291200128,-159
599619119298885888,-149
599619119306571776,-29
599619119314257664,-14
599619119321943552,-14
599619119329629440,-14
599619119337315328,-16
599619119345001088,-4
599619119352686976,2
599619119360372864,4
599619119368058752,12
599619119375744640,16
599619119383430528,21
599619119391116416,26
599619119398802176,31
599619119406488064,33
599619119414173952,38
599619119421859840,43
599619119429545728,45
599619119437231591,48
599619119444917504,55
599619119452603392,58
599619119460289280,62
599619119467975168,70
599619119475660928,72
599619119483346816,74
599619119491032704,82
599619119498718592,89
599619119506404480,91
599619119514090368,94
599619119521776128,94
599619119529462016,91
599619119537147904,82
599619119544833792,67
599619119552519680,45
599619119560205568,19
599619119567891328,-2
599619119575577216,-14
599619119583263104,-21
599619119590948992,-29
599619119598634880,-29
599619119606320768,-29
599619119614006656,-29
599619119621692416,-26
599619119629378304,-26
599619119637064192,-24
599619119644750080,-21
599619119652435968,-19
599619119660121856,-19
599619119667807616,-14
599619119675493504,-9
599619119683179392,-7
599619119690865280,-4
599619119698551168,-2
599619119706237056,0
599619119713922816,4
599619119721608704,7
599619119729294592,7
599619119736980480,9
599619119744666368,12
599619119752352256,14
599619119760038144,16
599619119767723904,14
599619119775409792,16
599619119783095680,16
599619119790781568,19
599619119798467456,21
599619119806153344,21
599619119813839104,21
599619119821524992,21
599619119829210880,21
599619119836896768,21
599619119844582656,21
599619119852268544,24
599619119859954304,24
599619119867640192,24
599619119875326080,24
599619119883011968,24
599619119890697856,24
599619119898383744,26
599619119906069504,26
599619119913755392,26
599619119921441280,26
599619119929127168,26
599619119936813056,26
599619119944498944,26
599619119952184832,26
599619119959870592,26
599619119967556480,26
599619119975242368,26
599619119982928256,29
599619119990614144,29
599619119998299934,29
599619120005985792,29
599619120013671680,29
599619120021357568,29
599619120029043456,29
599619120036729216,31
599619120044415104,31
599619120052100992,29
599619120059786880,31
599619120067472768,33
599619120075158656,33
599619120082844416,33
599619120090530304,33
599619120098216192,31
599619120105902080,33
599619120113587968,33
599619120121273856,33
599619120128959616,33
599619120136645504,33
599619120144331392,33
599619120152017280,36
599619120159703168,36
599619120167389056,36
599619120175074944,36
599619120182760704,38
599619120190446592,36
599619120198132480,36
599619120205818368,33
599619120213504256,29
599619120221190144,19
599619120228875904,19
599619120236561792,45
599619120244247680,79
599619120251933568,84
599619120259619456,74
599619120267305344,65
599619120274991104,45
599619120282676992,26
599619120290362880,31
599619120298048768,41
599619120305734656,38
599619120313420544,36
599619120321106432,36
599619120328792192,36
599619120336478080,36
599619120344163968,21
599619120351849856,-65
599619120359535744,-186
599619120367221632,-101
599619120374907392,348
599619120382593280,889
599619120390279168,969
599619120397965056,427
599619120405650944,-113
599619120413336832,-171
599619120421022592,-43
599619120428708480,-12
599619120436394368,-16
599619120444080256,-19
599619120451766144,-21
599619120459452032,-7
599619120467137920,0
599619120474823680,2
599619120482509568,9
599619120490195456,16
599619120497881344,21
599619120505567232,26
599619120513253120,31
599619120520938880,33
599619120528624768,38
599619120536310656,43
599619120543996544,48
599619120551682432,50
599619120559368281,58
599619120567054336,62
599619120574740352,65
599619120582426368,70
599619120590112384,77
599619120597798400,82
599619120605484416,89
599619120613170432,94
599619120620856448,99
599619120628542336,101
599619120636228352,101
599619120643914368,99
599619120651600384,94
599619120659286400,77
599619120666972416,50
599619120674658432,24
599619120682344448,2
599619120690030464,-14
599619120697716480,-26
599619120705402496,-33
599619120713088512,-38
599619120720774528,-41
599619120728460544,-41
599619120736146432,-38
599619120743832448,-33
599619120751518464,-31
599619120759204480,-26
599619120766890496,-24
599619120774576512,-21
599619120782262528,-19
599619120789948544,-14
599619120797634560,-9
599619120805320576,-7
599619120813006592,-4
599619120820692608,-2
599619120828378624,0
599619120836064640,2
599619120843750528,4
599619120851436544,4
599619120859122560,4
599619120866808576,7
599619120874494592,7
599619120882180608,9
599619120889866624,12
599619120897552640,12
599619120905238656,12
599619120912924672,14
599619120920610688,16
599619120928296704,14
599619120935982720,14
599619120943668736,16
599619120951354752,16
599619120959040640,16
599619120966726656,19
599619120974412672,19
599619120982098688,21
599619120989784704,19
599619120997470720,19
599619121005156736,21
599619121012842752,21
599619121020528768,21
599619121028214784,21
599619121035900800,21
599619121043586816,21
599619121051272832,21
599619121058958848,24
599619121066644736,26
599619121074330752,24
599619121082016768,24
599619121089702784,24
599619121097388800,26
599619121105074816,26
599619121112760832,26
599619121120446798,29
599619121128132992,29
599619121135819136,29
599619121143505280,29
599619121151191424,29
599619121158877568,29
599619121166563712,31
599619121174249856,31
599619121181936000,31
599619121189622144,31
599619121197308288,31
599619121204994432,31
599619121212680576,33
599619121220366720,33
599619121228052864,33
599619121235739008,33
599619121243425152,36
599619121251111296,33
599619121258797440,31
599619121266483584,31
599619121274169728,24
599619121281855872,12
599619121289542016,14
599619121297228160,45
599619121304914304,79
599619121312600448,87
599619121320286592,74
599619121327972736,62
599619121335659008,41
599619121343345152,24
599619121351031296,31
599619121358717440,36
599619121366403584,31
599619121374089728,31
599619121381775872,33
599619121389462016,31
599619121397148160,31
599619121404834304,12
599619121412520448,-82
599619121420206592,-200
599619121427892736,-77
599619121435578880,425
599619121443265024,971
599619121450951168,954
599619121458637312,316
599619121466323456,-193
599619121474009600,-190
599619121481695744,-65
599619121489381888,-26
599619121497068032,-4
599619121504754176,-9
599619121512440320,-19
599619121520126464,0
599619121527812608,7
599619121535498752,7
599619121543184896,16
599619121550871040,24
599619121558557184,26
599619121566243328,31
599619121573929472,38
599619121581615616,43
599619121589301760,45
599619121596987904,50
599619121604674048,55
599619121612360192,62
599619121620046336,65
599619121627732480,70
599619121635418624,77
599619121643104768,82
599619121650790912,87
599619121658477056,94
599619121666163200,103
599619121673849344,106
599619121681535485,111
599619121689221376,113
599619121696907264,113
599619121704593152,108
599619121712279040,101
599619121719964800,79
599619121727650688,48
599619121735336576,19
599619121743022464,-4
599619121750708352,-24
599619121758394240,-36
599619121766080000,-38
599619121773765888,-45
599619121781451776,-48
599619121789137664,-45
599619121796823552,-43
599619121804509440,-41
599619121812195200,-38
599619121819881088,-31
599619121827566976,-29
599619121835252864,-26
599619121842938752,-21
599619121850624640,-16
599619121858310528,-12
599619121865996288,-9
599619121873682176,-7
599619121881368064,-2
599619121889053952,-2
599619121896739840,0
599619121904425728,2
599619121912111488,7
599619121919797376,9
599619121927483264,9
599619121935169152,9
599619121942855040,9
599619121950540928,9
599619121958226688,9
599619121965912576,9
599619121973598464,9
599619121981284352,12
599619121988970240,14
599619121996656128,14
599619122004342016,16
599619122012027776,16
599619122019713664,16
599619122027399552,16
599619122035085440,16
599619122042771328,19
599619122050457216,21
599619122058142976,21
599619122065828864,21
599619122073514752,21
599619122081200640,21
599619122088886528,24
599619122096572416,21
599619122104258176,21
599619122111944064,21
599619122119629952,26
599619122127315840,24
599619122135001728,24
599619122142687616,26
599619122150373376,26
599619122158059264,26
599619122165745152,26
599619122173431040,26
599619122181116928,26
599619122188802816,26
599619122196488704,26
599619122204174464,29
599619122211860352,26
599619122219546240,24
599619122227232128,24
599619122234918016,21
599619122242603828,12
599619122250289664,16
599619122257975552,55
599619122265661440,82
599619122273347328,74
599619122281033088,65
599619122288718976,58
599619122296404864,36
599619122304090752,21
599619122311776640,24
599619122319462528,29
599619122327148288,26
599619122334834176,29
599619122342520064,29
599619122350205952,26
599619122357891840,29
599619122365577728,12
599619122373263488,-84
599619122380949376,-200
599619122388635264,-65
599619122396321152,439
599619122404007040,952
599619122411692928,865
599619122419378816,195
599619122427064576,-270
599619122434750464,-227
599619122442436352,-96
599619122450122240,-36
599619122457808128,19
599619122465494016,12
599619122473179776,-9
599619122480865664,12
599619122488551552,26
599619122496237440,19
599619122503923328,26
599619122511609216,38
599619122519294976,38
599619122526980864,43
599619122534666752,53
599619122542352640,55
599619122550038528,58
599619122557724416,62
599619122565410304,70
599619122573096064,77
599619122580781952,82
599619122588467840,87
599619122596153728,91
599619122603839616,99
599619122611525504,106
599619122619211264,116
599619122626897152,125
599619122634583040,130
599619122642268928,132
599619122649954816,137
599619122657640704,140
599619122665326464,135
599619122673012352,118
599619122680698240,94
599619122688384128,55
599619122696070016,19
599619122703755904,-7
599619122711441664,-26
599619122719127552,-38
599619122726813440,-43
599619122734499328,-45
599619122742185216,-48
599619122749871104,-45
599619122757556992,-45
599619122765242752,-43
599619122772928640,-38
599619122780614528,-33
599619122788300416,-29
599619122795986304,-26
599619122803672171,-21
599619122811358080,-16
599619122819043968,-12
599619122826729856,-9
599619122834415744,-4
599619122842101504,-2
599619122849787392,0
599619122857473280,2
599619122865159168,4
599619122872845056,7
599619122880530944,7
599619122888216704,9
599619122895902592,9
599619122903588480,7
599619122911274368,9
599619122918960256,12
599619122926646144,12
599619122934331904,14
599619122942017792,16
599619122949703680,14
599619122957389568,16
599619122965075456,19
599619122972761344,16
599619122980447232,16
599619122988132992,19
599619122995818880,21
599619123003504768,19
599619123011190656,19
599619123018876544,19
599619123026562432,21
599619123034248192,21
599619123041934080,21
599619123049619968,21
599619123057305856,21
599619123064991744,19
599619123072677632,21
599619123080363392,21
599619123088049280,19
599619123095735168,16
599619123103421056,12
599619123111106944,7
599619123118792832,2
599619123126478720,24
599619123134164480,62
599619123141850368,74
599619123149536256,62
599619123157222144,58
599619123164908032,43
599619123172593920,16
599619123180279680,14
599619123187965568,21
599619123195651456,21
599619123203337344,16
599619123211023232,16
599619123218709120,16
599619123226394880,21
599619123234080768,19
599619123241766656,-9
599619123249452544,-118
599619123257138432,-210
599619123264824320,-12
599619123272510080,534
599619123280195968,983
599619123287881856,775
599619123295567744,89
599619123303253632,-285
599619123310939520,-198
599619123318625408,-82
599619123326311168,-29
599619123333997056,9
599619123341682944,-2
599619123349368832,-14
599619123357054720,9
599619123364740514,16
599619123372426368,12
599619123380112256,21
599619123387798144,29
599619123395484032,29
599619123403169792,33
599619123410855680,38
599619123418541568,41
599619123426227456,48
599619123433913344,53
599619123441599232,55
599619123449284992,62
599619123456970880,67
599619123464656768,74
599619123472342656,79
599619123480028544,87
599619123487714432,96
599619123495400192,103
599619123503086080,108
599619123510771968,116
599619123518457856,120
599619123526143744,120
599619123533829632,116
599619123541515520,108
599619123549201280,91
599619123556887168,60
599619123564573056,24
599619123572258944,-7
599619123579944832,-29
599619123587630720,-45
599619123595316480,-53
599619123603002368,-58
599619123610688256,-60
599619123618374144,-58
599619123626060032,-58
599619123633745920,-55
599619123641431680,-53
599619123649117568,-50
599619123656803456,-45
599619123664489344,-41
599619123672175232,-38
599619123679861120,-33
599619123687547008,-26
599619123695232768,-24
599619123702918656,-21
599619123710604544,-16
599619123718290432,-14
599619123725976320,-12
599619123733662208,-9
599619123741347968,-7
599619123749033856,-4
599619123756719744,-4
599619123764405632,-2
599619123772091520,-2
599619123779777408,-2
599619123787463168,0
599619123795149056,0
599619123802834944,0
599619123810520832,2
599619123818206720,4
599619123825892608,2
599619123833578496,2
599619123841264256,4
599619123848950144,7
599619123856636032,7
599619123864321920,9
599619123872007808,9
599619123879693696,7
599619123887379456,9
599619123895065344,9
599619123902751232,12
599619123910437120,12
599619123918123008,12
599619123925808861,14
599619123933494784,12
599619123941180672,14
599619123948866560,14
599619123956552448,14
599619123964238208,14
599619123971924096,16
599619123979609984,16
599619123987295872,12
599619123994981760,7
599619124002667648,4
599619124010353408,-2
599619124018039296,14
599619124025725184,55
599619124033411072,72
599619124041096960,62
599619124048782848,60
599619124056468608,48
599619124064154496,21
599619124071840384,7
599619124079526272,14
599619124087212160,16
599619124094898048,14
599619124102583936,16
599619124110269696,19
599619124117955584,16
599619124125641472,16
599619124133327360,-4
599619124141013248,-111
599619124148699136,-219
599619124156384896,-62
599619124164070784,466
599619124171756672,995
599619124179442560,918
599619124187128448,253
599619124194814336,-222
599619124202500096,-193
599619124210185984,-70
599619124217871872,-36
599619124225557760,-16
599619124233243648,-21
599619124240929536,-29
599619124248615424,-12
599619124256301184,-2
599619124263987072,-2
599619124271672960,4
599619124279358848,12
599619124287044736,16
599619124294730624,21
599619124302416384,29
599619124310102272,33
599619124317788160,36
599619124325474048,41
599619124333159936,45
599619124340845824,50
599619124348531584,55
599619124356217472,62
599619124363903360,67
599619124371589248,77
599619124379275136,82
599619124386961024,89
599619124394646784,96
599619124402332672,101
599619124410018560,106
599619124417704448,106
599619124425390336,106
599619124433076224,99
599619124440762112,84
599619124448447872,60
599619124456133760,31
599619124463819648,2
599619124471505536,-21
599619124479191424,-36
599619124486877204,-45
599619124494563072,-50
599619124502248960,-53
599619124509934848,-53
599619124517620736,-53
599619124525306496,-48
599619124532992384,-45
599619124540678272,-43
599619124548364160,-38
599619124556050048,-33
599619124563735936,-31
599619124571421696,-26
599619124579107584,-21
599619124586793472,-16
599619124594479360,-14
599619124602165248,-12
599619124609851136,-7
599619124617536896,-4
599619124625222784,-4
599619124632908672,-2
599619124640594560,2
599619124648280448,2
599619124655966336,2
599619124663652224,4
599619124671337984,4
599619124679023872,4
599619124686709760,4
599619124694395648,7
599619124702081536,7
599619124709767424,7
599619124717453184,7
599619124725139072,9
599619124732824960,9
599619124740510848,9
599619124748196736,12
599619124755882624,12
599619124763568384,14
599619124771254272,14
599619124778940160,14
599619124786626048,16
599619124794311936,16
599619124801997824,16
599619124809683712,14
599619124817369472,16
599619124825055360,16
599619124832741248,16
599619124840427136,16
599619124848113024,16
599619124855798912,19
599619124863484672,19
599619124871170560,19
599619124878856448,21
599619124886542336,21
599619124894228224,21
599619124901914112,24
599619124909599872,24
599619124917285760,21
599619124924971648,21
599619124932657536,21
599619124940343424,19
599619124948029312,14
599619124955715072,2
599619124963400960,7
599619124971086848,45
599619124978772736,79
599619124986458624,74
599619124994144512,65
599619125001830400,60
599619125009516160,33
599619125017202048,14
599619125024887936,21
599619125032573824,26
599619125040259712,24
599619125047945547,21
599619125055631488,24
599619125063317376,24
599619125071003264,24
599619125078689152,14
599619125086374912,-62
599619125094060800,-198
599619125101746688,-145
599619125109432576,297
599619125117118464,889
599619125124804352,1019
599619125132490112,449
599619125140176000,-157
599619125147861888,-239
599619125155547776,-99
599619125163233664,-43
599619125170919552,-9
599619125178605312,0
599619125186291200,-19
599619125193977088,-9
599619125201662976,7
599619125209348864,7
599619125217034752,9
599619125224720640,21
599619125232406400,29
599619125240092288,31
599619125247778176,36
599619125255464064,41
599619125263149952,45
599619125270835840,53
599619125278521600,58
599619125286207488,62
599619125293893376,67
599619125301579264,72
599619125309265152,74
599619125316951040,82
599619125324636800,91
599619125332322688,99
599619125340008576,103
599619125347694464,108
599619125355380352,113
599619125363066240,118
599619125370752128,120
599619125378437888,116
599619125386123776,106
599619125393809664,84
599619125401495552,55
599619125409181440,21
599619125416867328,-2
599619125424553088,-19
599619125432238976,-36
599619125439924864,-43
599619125447610752,-43
599619125455296640,-43
599619125462982528,-45
599619125470668288,-41
599619125478354176,-38
599619125486040064,-38
599619125493725952,-33
599619125501411840,-26
599619125509097728,-24
599619125516783488,-21
599619125524469376,-16
599619125532155264,-12
599619125539841152,-9
599619125547527040,-7
599619125555212928,-4
599619125562898816,-2
599619125570584576,2
599619125578270464,2
599619125585956352,4
599619125593642240,7
599619125601328128,7
599619125609013890,7
599619125616699776,7
599619125624385664,9
599619125632071552,12
599619125639757440,14
599619125647443200,12
599619125655129088,12
599619125662814976,14
599619125670500864,14
599619125678186752,14
599619125685872640,16
599619125693558400,16
599619125701244288,16
599619125708930176,21
599619125716616064,24
599619125724301952,21
599619125731987840,21
599619125739673600,21
599619125747359488,24
599619125755045376,24
599619125762731264,24
599619125770417152,24
599619125778103040,26
599619125785788928,24
599619125793474688,19
599619125801160576,19
599619125808846464,14
599619125816532352,9
599619125824218240,31
599619125831904128,70
599619125839589888,77
599619125847275776,67
599619125854961664,65
599619125862647552,48
599619125870333440,26
599619125878019328,24
599619125885705088,31
599619125893390976,29
599619125901076864,26
599619125908762752,29
599619125916448640,29
599619125924134528,29
599619125931820416,29
599619125939506176,0
599619125947192064,-111
599619125954877952,-193
599619125962563840,24
599619125970249728,560
599619125977935616,957
599619125985621376,691
599619125993307264,14
599619126000993152,-292
599619126008679040,-181
599619126016364928,-87
599619126024050816,-26
599619126031736576,33
599619126039422464,12
599619126047108352,-4
599619126054794240,21
599619126062480128,29
599619126070166016,24
599619126077851776,36
599619126085537664,43
599619126093223552,43
599619126100909440,48
599619126108595328,55
599619126116281216,58
599619126123967104,60
599619126131652864,67
599619126139338752,72
599619126147024640,79
599619126154710528,84
599619126162396416,89
599619126170082233,94
599619126177768064,101
599619126185453952,113
599619126193139840,120
599619126200825728,128
599619126208511488,132
599619126216197376,137
599619126223883264,140
599619126231569152,137
599619126239255040,125
599619126246940928,103
599619126254626688,67
599619126262312576,31
599619126269998464,0
599619126277684352,-24
599619126285370240,-38
599619126293056128,-48
599619126300741888,-53
599619126308427776,-50
599619126316113664,-50
599619126323799552,-50
599619126331485440,-48
599619126339171328,-45
599619126346857216,-41
599619126354542976,-38
599619126362228864,-31
599619126369914752,-29
599619126377600640,-26
599619126385286528,-24
599619126392972416,-16
599619126400658176,-12
599619126408344064,-9
599619126416029952,-9
599619126423715840,-4
599619126431401728,-2
599619126439087616,0
599619126446773376,2
599619126454459264,2
599619126462145152,2
599619126469831040,4
599619126477516928,2
599619126485202816,2
599619126492888704,7
599619126500574464,7
599619126508260352,7
599619126515946240,4
599619126523632128,2
599619126531318016,7
599619126539003904,9
599619126546689664,7
599619126554375552,7
599619126562061440,9
599619126569747328,9
599619126577433216,9
599619126585119104,12
599619126592804864,14
599619126600490752,12
599619126608176640,12
599619126615862528,14
599619126623548416,12
599619126631234304,7
599619126638920064,4
599619126646605952,0
599619126654291840,-4
599619126661977728,12
599619126669663616,50
599619126677349504,65
599619126685035392,53
599619126692721152,53
599619126700407040,43
599619126708092928,14
599619126715778816,2
599619126723464704,9
599619126731150576,12
599619126738836864,7
599619126746523136,9
599619126754209408,12
599619126761895680,9
599619126769581952,12
599619126777268352,-2
599619126784954624,-94
599619126792640896,-219
599619126800327168,-116
599619126808013440,367
599619126815699712,928
599619126823385984,959
599619126831072256,348
599619126838758528,-190
599619126846444928,-212
599619126854131200,-77
599619126861817472,-33
599619126869503744,-14
599619126877190016,-16
599619126884876288,-29
599619126892562560,-16
599619126900248832,-7
599619126907935104,-4
599619126915621376,2
599619126923307776,9
599619126930994048,14
599619126938680320,19
599619126946366592,21
599619126954052864,26
599619126961739136,29
599619126969425408,26
599619126977111680,29
599619126984797952,36
599619126992484352,45
599619127000170624,50
599619127007856896,53
599619127015543168,60
599619127023229440,72
599619127030915712,82
599619127038601984,89
599619127046288256,96
599619127053974528,101
599619127061660928,106
599619127069347200,106
599619127077033472,96
599619127084719744,82
599619127092406016,55
599619127100092288,21
599619127107778560,-9
599619127115464832,-33
599619127123151104,-48
599619127130837504,-58
599619127138523776,-60
599619127146210048,-58
599619127153896320,-55
599619127161582592,-58
599619127169268864,-60
599619127176955136,-58
599619127184641408,-50
599619127192327680,-48
599619127200013952,-45
599619127207700352,-38
599619127215386624,-31
599619127223072896,-29
599619127230759168,-24
599619127238445440,-21
599619127246131712,-16
599619127253817984,-14
599619127261504256,-9
599619127269190528,-7
599619127276876928,-4
599619127284563200,-2
599619127292249441,-2
599619127299935360,0
599619127307621248,4
599619127315307136,4
599619127322993024,2
599619127330678784,4
599619127338364672,7
599619127346050560,7
599619127353736448,7
599619127361422336,9
599619127369108224,9
599619127376793984,9
599619127384479872,12
599619127392165760,12
599619127399851648,14
599619127407537536,16
599619127415223424,16
599619127422909184,14
599619127430595072,16
599619127438280960,16
599619127445966848,12
599619127453652736,7
599619127461338624,9
599619127469024512,2
599619127476710272,-4
599619127484396160,19
599619127492082048,60
599619127499767936,67
599619127507453824,60
599619127515139712,60
599619127522825472,43
599619127530511360,14
599619127538197248,12
599619127545883136,21
599619127553569024,19
599619127561254912,14
599619127568940672,19
599619127576626560,21
599619127584312448,16
599619127591998336,14
599619127599684224,-24
599619127607370112,-147
599619127615056000,-212
599619127622741760,62
599619127630427648,647
599619127638113536,1041
599619127645799424,727
599619127653485312,31
599619127661171200,-265
599619127668856960,-147
599619127676542848,-45
599619127684228736,-16
599619127691914624,-2
599619127699600512,-19
599619127707286400,-16
599619127714972160,4
599619127722658048,9
599619127730343936,12
599619127738029824,19
599619127745715712,26
599619127753401600,29
599619127761087360,33
599619127768773248,36
599619127776459136,41
599619127784145024,48
599619127791830912,55
599619127799516800,58
599619127807202688,65
599619127814888448,74
599619127822574336,77
599619127830260224,84
599619127837946112,94
599619127845632000,103
599619127853317784,111
599619127861003648,120
599619127868689536,125
599619127876375424,128
599619127884061312,128
599619127891747072,125
599619127899432960,113
599619127907118848,87
599619127914804736,50
599619127922490624,16
599619127930176512,-9
599619127937862272,-26
599619127945548160,-38
599619127953234048,-45
599619127960919936,-48
599619127968605824,-50
599619127976291712,-48
599619127983977472,-43
599619127991663360,-43
599619127999349248,-41
599619128007035136,-36
599619128014721024,-31
599619128022406912,-29
599619128030092800,-24
599619128037778560,-19
599619128045464448,-16
599619128053150336,-12
599619128060836224,-7
599619128068522112,-2
599619128076208000,-2
599619128083893760,0
599619128091579648,2
599619128099265536,4
599619128106951424,7
599619128114637312,9
599619128122323200,9
599619128130008960,12
599619128137694848,9
599619128145380736,12
599619128153066624,14
599619128160752512,12
599619128168438400,12
599619128176124288,14
599619128183810048,14
599619128191495936,14
599619128199181824,14
599619128206867712,12
599619128214553600,9
599619128222239488,2
599619128229925248,-2
599619128237611136,19
599619128245297024,60
599619128252982912,72
599619128260668800,62
599619128268354688,60
599619128276040448,45
599619128283726336,19
599619128291412224,14
599619128299098112,21
599619128306784000,24
599619128314469888,19
599619128322155648,19
599619128329841536,21
599619128337527424,24
599619128345213312,21
599619128352899200,-4
599619128360585088,-113
599619128368270976,-217
599619128375956736,-31
599619128383642624,526
599619128391328512,1027
599619128399014400,870
599619128406700288,176
599619128414386127,-248
599619128422072064,-181
599619128429757952,-55
599619128437443840,-16
599619128445129728,-2
599619128452815488,-14
599619128460501376,-16
599619128468187264,2
599619128475873152,7
599619128483559040,12
599619128491244928,19
599619128498930688,26
599619128506616576,31
599619128514302464,36
599619128521988352,41
599619128529674240,48
599619128537360128,53
599619128545045888,58
599619128552731776,65
599619128560417664,70
599619128568103552,77
599619128575789440,84
599619128583475328,89
599619128591161216,99
599619128598846976,108
599619128606532864,118
599619128614218752,123
599619128621904640,132
599619128629590528,135
599619128637276416,132
599619128644962176,128
599619128652648064,113
599619128660333952,82
599619128668019840,43
599619128675705728,9
599619128683391616,-16
599619128691077376,-31
599619128698763264,-45
599619128706449152,-53
599619128714135040,-53
599619128721820928,-50
599619128729506816,-50
599619128737192704,-48
599619128744878464,-45
599619128752564352,-41
599619128760250240,-38
599619128767936128,-36
599619128775622016,-31
599619128783307904,-24
599619128790993664,-19
599619128798679552,-16
599619128806365440,-12
599619128814051328,-7
599619128821737216,-2
599619128829423104,-2
599619128837108864,2
599619128844794752,4
599619128852480640,4
599619128860166528,7
599619128867852416,9
599619128875538304,9
599619128883224064,9
599619128890909952,12
599619128898595840,12
599619128906281728,14
599619128913967616,14
599619128921653504,12
599619128929339392,14
599619128937025152,16
599619128944711040,16
599619128952396928,16
599619128960082816,16
599619128967768704,16
599619128975454470,16
599619128983140352,19
599619128990826240,21
599619128998512128,19
599619129006198016,16
599619129013883776,21
599619129021569664,24
599619129029255552,21
599619129036941440,21
599619129044627328,21
599619129052313216,21
599619129059998976,19
599619129067684864,16
599619129075370752,9
599619129083056640,4
599619129090742528,24
599619129098428416,65
599619129106114176,77
599619129113800064,70
599619129121485952,67
599619129129171840,53
599619129136857728,24
599619129144543616,14
599619129152229504,24
599619129159915264,26
599619129167601152,21
599619129175287040,24
599619129182972928,24
599619129190658816,24
599619129198344704,26
599619129206030464,2
599619129213716352,-106
599619129221402240,-217
599619129229088128,-50
599619129236774016,490
599619129244459904,1019
599619129252145664,920
599619129259831552,239
599619129267517440,-219
599619129275203328,-174
599619129282889216,-53
599619129290575104,-24
599619129298260992,-9
599619129305946752,-14
599619129313632640,-19
599619129321318528,-4
599619129329004416,4
599619129336690304,4
599619129344376192,14
