599623357151864192,377
599623357159556480,1435
599623357167248768,2332
599623357174941056,2300
599623357182633472,2197
599623357190325760,2426
599623357198018048,2462
599623357205710336,2400
599623357213402624,2472
599623357221094912,2516
599623357228787328,2487
599623357236479616,2506
599623357244171904,2535
599623357251864192,2530
599623357259556480,2528
599623357267248768,2537
599623357274941056,2537
599623357282633472,2547
599623357290325760,2578
599623357298018048,2598
599623357305710336,2600
599623357313402624,2593
599623357321094912,2574
599623357328787328,2557
599623357336479616,2562
599623357344171904,2574
599623357351864192,2566
599623357359556480,2552
599623357367248768,2554
599623357374941056,2552
599623357382633472,2537
599623357390325760,2537
599623357398018048,2511
599623357405710336,2402
599623357413402624,2342
599623357421094912,2576
599623357428787328,3052
599623357436479616,3330
599623357444171904,2997
599623357451864192,2361
599623357459556480,2148
599623357467248768,2327
599623357474941056,2441
599623357482633472,2453
599623357490325760,2448
599623357498018048,2424
599623357505710336,2412
599623357513402624,2416
599623357521094912,2409
599623357528787328,2395
599623357536479616,2395
599623357544171904,2387
599623357551864192,2371
599623357559556480,2361
599623357567248768,2358
599623357574941056,2349
599623357582633472,2339
599623357590325760,2327
599623357598018048,2322
599623357605710336,2317
599623357613402624,2303
599623357621094912,2288
599623357628787328,2286
599623357636479616,2279
599623357644171904,2259
599623357651864192,2250
599623357659556480,2250
599623357667248768,2240
599623357674941056,2221
599623357682633472,2204
599623357690325760,2187
599623357698018048,2165
599623357705710337,2131
599623357713396608,2093
599623357721082880,2047
599623357728769152,1996
599623357736455424,1948
599623357744141696,1911
599623357751828096,1887
599623357759514368,1863
599623357767200640,1844
599623357774886912,1829
599623357782573184,1815
599623357790259456,1798
599623357797945728,1774
599623357805632000,1757
599623357813318272,1749
599623357821004672,1732
599623357828690944,1711
599623357836377216,1699
599623357844063488,1689
599623357851749760,1672
599623357859436032,1653
599623357867122304,1633
599623357874808576,1619
599623357882494848,1600
599623357890181120,1580
599623357897867520,1568
599623357905553792,1556
599623357913240064,1537
599623357920926336,1513
599623357928612608,1500
599623357936298880,1486
599623357943985152,1464
599623357951671424,1447
599623357959357696,1435
599623357967044096,1416
599623357974730368,1394
599623357982416640,1377
599623357990102912,1365
599623357997789184,1351
599623358005475456,1331
599623358013161728,1312
599623358020848000,1300
599623358028534272,1285
599623358036220672,1268
599623358043906944,1256
599623358051593216,1244
599623358059279488,1227
599623358066965760,1206
599623358074652032,1193
599623358082338304,1184
599623358090024576,1167
599623358097710848,1150
599623358105397120,1138
599623358113083520,1128
599623358120769792,1111
599623358128456064,1094
599623358136142336,1085
599623358143828608,1075
599623358151514880,1056
599623358159201152,1041
599623358166887424,1032
599623358174573696,1019
599623358182260096,1007
599623358189946368,993
599623358197632640,976
599623358205318912,964
599623358213005184,947
599623358220691456,925
599623358228377728,928
599623358236064000,947
599623358243750272,947
599623358251436672,928
599623358259122944,918
599623358266809198,896
599623358274495488,862
599623358282181760,845
599623358289868032,845
599623358297554304,836
599623358305240576,821
599623358312926976,814
599623358320613248,807
599623358328299520,797
599623358335985792,783
599623358343672064,737
599623358351358336,628
599623358359044608,575
599623358366730880,809
599623358374417152,1290
599623358382103552,1563
599623358389789824,1203
599623358397476096,551
599623358405162368,362
599623358412848640,560
599623358420534912,662
599623358428221184,662
599623358435907456,669
599623358443593728,655
599623358451280000,642
599623358458966400,645
599623358466652672,642
599623358474338944,635
599623358482025216,633
599623358489711488,630
599623358497397760,626
599623358505084032,626
599623358512770304,623
599623358520456576,618
599623358528142976,616
599623358535829248,616
599623358543515520,613
599623358551201792,611
599623358558888064,611
599623358566574336,609
599623358574260608,611
599623358581946880,611
599623358589633152,611
599623358597319552,613
599623358605005824,613
599623358612692096,611
599623358620378368,609
599623358628064640,604
599623358635750912,596
599623358643437184,587
599623358651123456,567
599623358658809728,538
599623358666496000,502
599623358674182400,466
599623358681868672,437
599623358689554944,418
599623358697241216,403
599623358704927488,393
599623358712613760,391
599623358720300032,389
599623358727986304,384
599623358735672576,384
599623358743358976,384
599623358751045248,384
599623358758731520,381
599623358766417792,381
599623358774104064,381
599623358781790336,379
599623358789476608,377
599623358797162880,377
599623358804849152,377
599623358812535552,377
599623358820221824,374
599623358827908059,372
599623358835594240,369
599623358843280384,367
599623358850966528,367
599623358858652672,364
599623358866338816,357
599623358874024960,355
599623358881711104,352
599623358889397248,350
599623358897083392,348
599623358904769536,340
599623358912455680,335
599623358920141824,335
599623358927827968,335
599623358935514112,331
599623358943200256,328
599623358950886400,326
599623358958572544,323
599623358966258688,321
599623358973944832,321
599623358981630976,321
599623358989317120,319
599623358997003264,311
599623359004689408,311
599623359012375552,311
599623359020061696,311
599623359027747840,309
599623359035433984,309
599623359043120256,306
599623359050806400,304
599623359058492544,299
599623359066178688,299
599623359073864832,297
599623359081550976,290
599623359089237120,280
599623359096923264,273
599623359104609408,275
599623359112295552,297
599623359119981696,319
599623359127667840,319
599623359135353984,314
599623359143040128,304
599623359150726272,282
599623359158412416,273
599623359166098560,277
599623359173784704,277
599623359181470848,273
599623359189156992,270
599623359196843136,273
599623359204529280,270
599623359212215424,268
599623359219901568,248
599623359227587712,164
599623359235273856,77
599623359242960000,224
599623359250646144,671
599623359258332288,1058
599623359266018432,865
599623359273704576,222
599623359281390720,-94
599623359289076864,67
599623359296763008,205
599623359304449152,229
599623359312135296,258
599623359319821440,248
599623359327507584,229
599623359335193728,246
599623359342879872,253
599623359350566016,246
599623359358252160,246
599623359365938304,251
599623359373624448,253
599623359381310592,253
599623359388996750,258
599623359396682752,263
599623359404368768,265
599623359412054784,268
599623359419740800,273
599623359427426816,277
599623359435112832,280
599623359442798848,285
599623359450484864,287
599623359458170752,292
599623359465856768,299
599623359473542784,304
599623359481228800,309
599623359488914816,316
599623359496600832,321
599623359504286848,319
599623359511972864,314
599623359519658880,311
599623359527344896,297
599623359535030912,268
599623359542716928,234
599623359550402944,200
599623359558088960,176
599623359565774848,159
599623359573460864,152
599623359581146880,147
599623359588832896,142
599623359596518912,145
599623359604204928,147
599623359611890944,147
599623359619576960,147
599623359627262976,149
599623359634948992,154
599623359642635008,157
599623359650321024,159
599623359658007040,159
599623359665693056,159
599623359673378944,166
599623359681064960,171
599623359688750976,169
599623359696436992,171
599623359704123008,176
599623359711809024,174
599623359719495040,171
599623359727181056,174
599623359734867072,176
599623359742553088,176
599623359750239104,176
599623359757925120,174
599623359765611136,174
599623359773297152,174
599623359780983040,171
599623359788669056,169
599623359796355072,174
599623359804041088,171
599623359811727104,169
599623359819413120,169
599623359827099136,171
599623359834785152,166
599623359842471168,169
599623359850157184,169
599623359857843200,166
599623359865529216,164
599623359873215232,164
599623359880901248,166
599623359888587264,164
599623359896273152,157
599623359903959168,154
599623359911645184,149
599623359919331200,152
599623359927017216,176
599623359934703232,195
599623359942389248,193
599623359950075263,190
599623359957761536,183
599623359965447808,164
599623359973134080,157
599623359980820352,161
599623359988506624,161
599623359996193024,159
599623360003879296,161
599623360011565568,159
599623360019251840,154
599623360026938112,157
599623360034624384,142
599623360042310656,60
599623360049996928,-24
599623360057683200,120
599623360065369600,553
599623360073055872,903
599623360080742144,671
599623360088428416,24
599623360096114688,-229
599623360103800960,-21
599623360111487232,94
599623360119173504,125
599623360126859776,188
599623360134546048,174
599623360142232448,142
599623360149918720,166
599623360157604992,176
599623360165291264,166
599623360172977536,169
599623360180663808,174
599623360188350080,176
599623360196036352,181
599623360203722624,186
599623360211409024,188
599623360219095296,190
599623360226781568,195
599623360234467840,200
599623360242154112,205
599623360249840384,210
599623360257526656,215
599623360265212928,222
599623360272899200,229
599623360280585600,236
599623360288271872,244
599623360295958144,251
599623360303644416,258
599623360311330688,263
599623360319016960,263
599623360326703232,261
599623360334389504,253
599623360342075776,234
599623360349762048,200
599623360357448448,159
599623360365134720,123
599623360372820992,96
599623360380507264,82
599623360388193536,72
599623360395879808,67
599623360403566080,70
599623360411252352,70
599623360418938624,70
599623360426625024,74
599623360434311296,79
599623360441997568,82
599623360449683840,84
599623360457370112,84
599623360465056384,87
599623360472742656,91
599623360480428928,94
599623360488115200,96
599623360495801600,101
599623360503487872,103
599623360511174124,106
599623360518860416,106
599623360526546688,108
599623360534232960,111
599623360541919232,111
599623360549605504,108
599623360557291904,106
599623360564978176,111
599623360572664448,111
599623360580350720,108
599623360588036992,108
599623360595723264,111
599623360603409536,108
599623360611095808,111
599623360618782080,111
599623360626468480,108
599623360634154752,106
599623360641841024,111
599623360649527296,113
599623360657213568,106
599623360664899840,101
599623360672586112,99
599623360680272384,94
599623360687958656,106
599623360695644928,130
599623360703331328,140
599623360711017600,140
599623360718703872,137
599623360726390144,118
599623360734076416,103
599623360741762688,113
599623360749448960,118
599623360757135232,111
599623360764821504,111
599623360772507904,113
599623360780194176,111
599623360787880448,113
599623360795566720,116
599623360803252992,87
599623360810939264,-9
599623360818625536,-65
599623360826311808,145
599623360833998080,592
599623360841684480,821
599623360849370752,439
599623360857057024,-145
599623360864743296,-215
599623360872429568,-2
599623360880115840,48
599623360887802112,96
599623360895488384,164
599623360903174656,128
599623360910861056,103
599623360918547328,135
599623360926233600,137
599623360933919872,125
599623360941606144,132
599623360949292416,140
599623360956978688,140
599623360964664960,145
599623360972351232,149
599623360980037504,154
599623360987723904,154
599623360995410176,159
599623361003096448,164
599623361010782720,171
599623361018468992,178
599623361026155264,183
599623361033841536,190
599623361041527808,198
599623361049214080,207
599623361056900480,212
599623361064586752,219
599623361072272989,227
599623361079958912,234
599623361087644800,232
599623361095330688,224
599623361103016576,215
599623361110702336,188
599623361118388224,147
599623361126074112,108
599623361133760000,79
599623361141445888,58
599623361149131776,41
599623361156817536,36
599623361164503424,36
599623361172189312,36
599623361179875200,41
599623361187561088,45
599623361195246976,48
599623361202932736,45
599623361210618624,50
599623361218304512,55
599623361225990400,53
599623361233676288,55
599623361241362176,65
599623361249048064,65
599623361256733824,65
599623361264419712,72
599623361272105600,77
599623361279791488,77
599623361287477376,77
599623361295163264,79
599623361302849024,84
599623361310534912,84
599623361318220800,84
599623361325906688,84
599623361333592576,84
599623361341278464,87
599623361348964224,87
599623361356650112,84
599623361364336000,84
599623361372021888,87
599623361379707776,84
599623361387393664,79
599623361395079552,82
599623361402765312,82
599623361410451200,74
599623361418137088,67
599623361425822976,84
599623361433508864,111
599623361441194752,116
599623361448880512,111
599623361456566400,111
599623361464252288,99
599623361471938176,82
599623361479624064,84
599623361487309952,89
599623361494995712,89
599623361502681600,89
599623361510367488,89
599623361518053376,89
599623361525739264,91
599623361533425152,91
599623361541110912,74
599623361548796800,0
599623361556482688,-87
599623361564168576,31
599623361571854464,430
599623361579540352,761
599623361587226240,538
599623361594912000,-38
599623361602597888,-236
599623361610283776,-50
599623361617969664,29
599623361625655552,62
599623361633341332,135
599623361641027584,113
599623361648713856,82
599623361656400128,108
599623361664086400,116
599623361671772672,103
599623361679459072,113
599623361687145344,123
599623361694831616,116
599623361702517888,118
599623361710204160,130
599623361717890432,130
599623361725576704,128
599623361733262976,135
599623361740949248,145
599623361748635648,147
599623361756321920,149
599623361764008192,159
599623361771694464,169
599623361779380736,174
599623361787067008,181
599623361794753280,188
599623361802439552,195
599623361810125824,200
599623361817812096,205
599623361825498496,207
599623361833184768,203
599623361840871040,190
599623361848557312,166
599623361856243584,132
599623361863929856,91
599623361871616128,58
599623361879302400,41
599623361886988672,29
599623361894675072,19
599623361902361344,21
599623361910047616,29
599623361917733888,29
599623361925420160,26
599623361933106432,29
599623361940792704,31
599623361948478976,33
599623361956165248,41
599623361963851648,41
599623361971537920,43
599623361979224192,48
599623361986910464,48
599623361994596736,50
599623362002283008,58
599623362009969280,60
599623362017655552,55
599623362025341824,62
599623362033028096,67
599623362040714496,65
599623362048400768,65
599623362056087040,72
599623362063773312,72
599623362071459584,67
599623362079145856,70
599623362086832128,72
599623362094518400,72
599623362102204672,70
599623362109891072,72
599623362117577344,74
599623362125263616,74
599623362132949888,74
599623362140636160,72
599623362148322432,70
599623362156008704,67
599623362163694976,65
599623362171381248,60
599623362179067648,62
599623362186753920,84
599623362194440193,101
599623362202126464,99
599623362209812736,96
599623362217499008,91
599623362225185280,79
599623362232871552,72
599623362240557952,74
599623362248244224,74
599623362255930496,72
599623362263616768,74
599623362271303040,74
599623362278989312,74
599623362286675584,77
599623362294361856,77
599623362302048128,43
599623362309734528,-48
599623362317420800,-84
599623362325107072,142
599623362332793344,560
599623362340479616,708
599623362348165888,302
599623362355852160,-164
599623362363538432,-164
599623362371224704,0
599623362378910976,31
599623362386597376,79
599623362394283648,113
599623362401969920,77
599623362409656192,72
599623362417342464,99
599623362425028736,94
599623362432715008,89
599623362440401280,99
599623362448087552,101
599623362455773952,101
599623362463460224,103
599623362471146496,108
599623362478832768,111
599623362486519040,116
599623362494205312,120
599623362501891584,128
599623362509577856,132
599623362517264128,135
599623362524950528,140
599623362532636800,149
599623362540323072,157
599623362548009344,161
599623362555695616,171
599623362563381888,178
599623362571068160,181
599623362578754432,188
599623362586440704,186
599623362594126976,174
599623362601813376,161
599623362609499648,135
599623362617185920,101
599623362624872192,70
599623362632558464,43
599623362640244736,29
599623362647931008,26
599623362655617280,21
599623362663303552,19
599623362670989952,21
599623362678676224,21
599623362686362496,24
599623362694048768,31
599623362701735040,33
599623362709421312,33
599623362717107584,33
599623362724793856,38
599623362732480128,38
599623362740166528,38
599623362747852800,48
599623362755539054,53
599623362763225344,48
599623362770911616,50
599623362778597760,58
599623362786284032,58
599623362793970176,55
599623362801656448,62
599623362809342592,67
599623362817028864,65
599623362824715136,60
599623362832401280,67
599623362840087552,67
599623362847773696,60
599623362855459968,67
599623362863146112,67
599623362870832384,62
599623362878518528,67
599623362886204800,67
599623362893891072,65
599623362901577216,67
599623362909263488,70
599623362916949632,65
599623362924635904,65
599623362932322048,70
599623362940008320,70
599623362947694592,67
599623362955380736,67
599623362963067008,70
599623362970753152,70
599623362978439424,70
599623362986125568,72
599623362993811840,72
599623363001497984,70
599623363009184256,67
599623363016870528,58
599623363024556672,55
599623363032242944,72
599623363039929088,94
599623363047615360,96
599623363055301504,99
599623363062987776,101
599623363070674048,82
599623363078360192,62
599623363086046464,67
599623363093732608,72
599623363101418880,72
599623363109105024,72
599623363116791296,72
599623363124477440,70
599623363132163712,72
599623363139849984,74
599623363147536128,67
599623363155222400,19
599623363162908544,-72
599623363170594816,-48
599623363178280960,244
599623363185967232,618
599623363193653504,611
599623363201339648,142
599623363209025920,-193
599623363216712064,-99
599623363224398336,24
599623363232084480,43
599623363239770752,94
599623363247457024,101
599623363255143168,65
599623363262829440,72
599623363270515584,89
599623363278201856,84
599623363285888000,84
599623363293574272,96
599623363301260416,96
599623363308946688,96
599623363316632832,101
599623363324318720,103
599623363332004608,101
599623363339690624,111
599623363347376512,116
599623363355062528,113
599623363362748416,118
599623363370434304,125
599623363378120320,128
599623363385806208,135
599623363393492096,137
599623363401178112,145
599623363408864000,152
599623363416550016,154
599623363424235904,159
599623363431921792,164
599623363439607808,164
599623363447293696,154
599623363454979712,140
599623363462665600,118
599623363470351488,87
599623363478037504,55
599623363485723392,38
599623363493409280,26
599623363501095296,16
599623363508781184,14
599623363516467200,19
599623363524153088,16
599623363531838976,16
599623363539524992,24
599623363547210880,29
599623363554896896,26
599623363562582784,29
599623363570268672,31
599623363577954688,36
599623363585640576,36
599623363593326464,36
599623363601012480,41
599623363608698368,43
599623363616384384,41
599623363624070272,45
599623363631756160,50
599623363639442176,48
599623363647128064,48
599623363654814080,53
599623363662499968,58
599623363670185856,55
599623363677871872,55
599623363685557760,58
599623363693243776,55
599623363700929664,55
599623363708615552,60
599623363716301568,65
599623363723987456,65
599623363731673344,60
599623363739359360,60
599623363747045248,60
599623363754731264,60
599623363762417152,65
599623363770103040,65
599623363777789056,62
599623363785474944,65
599623363793160960,67
599623363800846848,65
599623363808532736,60
599623363816218752,62
599623363823904640,67
599623363831590528,65
599623363839276544,65
599623363846962432,67
599623363854648448,65
599623363862334336,62
599623363870020224,72
599623363877706258,74
599623363885392512,67
599623363893078784,65
599623363900765056,67
599623363908451328,65
599623363916137600,65
599623363923824000,70
599623363931510272,67
599623363939196544,65
599623363946882816,65
599623363954569088,70
599623363962255360,67
599623363969941632,65
599623363977627904,67
599623363985314176,67
599623363993000576,67
599623364000686848,67
599623364008373120,67
599623364016059392,70
599623364023745664,70
599623364031431936,67
599623364039118208,67
599623364046804480,70
599623364054490752,72
599623364062177024,67
599623364069863424,67
599623364077549696,62
599623364085235968,55
599623364092922240,62
599623364100608512,84
599623364108294784,96
599623364115981056,99
599623364123667328,94
599623364131353600,79
599623364139040000,67
599623364146726272,67
599623364154412544,67
599623364162098816,72
599623364169785088,74
599623364177471360,70
599623364185157632,70
599623364192843904,74
599623364200530176,72
599623364208216576,67
599623364215902848,24
599623364223589120,-67
599623364231275392,-55
599623364238961664,212
599623364246647936,567
599623364254334208,580
599623364262020480,166
599623364269706752,-159
599623364277393152,-94
599623364285079424,26
599623364292765696,41
599623364300451968,77
599623364308138240,91
599623364315824512,65
599623364323510784,70
599623364331197056,82
599623364338883328,77
599623364346569600,84
599623364354256000,91
599623364361942272,89
599623364369628544,84
599623364377314816,87
599623364385001088,91
599623364392687360,96
599623364400373632,106
599623364408059904,103
599623364415746176,99
599623364423432576,106
599623364431118848,113
599623364438805123,113
599623364446491392,120
599623364454177664,128
599623364461863936,123
599623364469550208,132
599623364477236480,145
599623364484922880,145
599623364492609152,142
599623364500295424,145
599623364507981696,140
599623364515667968,130
599623364523354240,118
599623364531040512,94
599623364538726784,60
599623364546413056,41
599623364554099456,33
599623364561785728,19
599623364569472000,14
599623364577158272,21
599623364584844544,16
599623364592530816,12
599623364600217088,21
599623364607903360,26
599623364615589632,21
599623364623275904,24
599623364630962304,31
599623364638648576,31
599623364646334848,26
599623364654021120,33
599623364661707392,38
599623364669393664,36
599623364677079936,38
599623364684766208,41
599623364692452480,43
599623364700138880,43
599623364707825152,43
599623364715511424,43
599623364723197696,45
599623364730883968,48
599623364738570240,50
599623364746256512,53
599623364753942784,55
599623364761629056,53
599623364769315456,55
599623364777001728,55
599623364784688000,48
599623364792374272,58
599623364800060544,62
599623364807746816,55
599623364815433088,53
599623364823119360,55
599623364830805632,55
599623364838491904,58
599623364846178304,60
599623364853864576,58
599623364861550848,58
599623364869237120,60
599623364876923392,58
599623364884609664,55
599623364892295936,60
599623364899982208,62
599623364907668480,60
599623364915354880,55
599623364923041152,60
599623364930727424,60
599623364938413696,58
599623364946099968,62
599623364953786240,62
599623364961472512,58
599623364969158784,58
599623364976845056,62
599623364984531456,60
599623364992217728,60
599623364999903984,62
599623365007589888,65
599623365015275776,65
599623365022961664,65
599623365030647552,58
599623365038333312,58
599623365046019200,67
599623365053705088,67
599623365061390976,62
599623365069076864,62
599623365076762752,65
599623365084448512,62
599623365092134400,62
599623365099820288,70
599623365107506176,67
599623365115192064,58
599623365122877952,62
599623365130563712,70
599623365138249600,65
599623365145935488,50
599623365153621376,50
599623365161307264,67
599623365168993152,82
599623365176679040,87
599623365184364800,89
599623365192050688,87
599623365199736576,74
599623365207422464,58
599623365215108352,58
599623365222794240,65
599623365230480000,67
599623365238165888,65
599623365245851776,65
599623365253537664,65
599623365261223552,65
599623365268909440,65
599623365276595200,60
599623365284281088,4
599623365291966976,-79
599623365299652864,-29
599623365307338752,251
599623365315024640,546
599623365322710528,476
599623365330396288,79
599623365338082176,-142
599623365345768064,-50
599623365353453952,31
599623365361139840,41
599623365368825728,74
599623365376511488,82
599623365384197376,60
599623365391883264,62
599623365399569152,77
599623365407255040,74
599623365414940928,72
599623365422626688,79
599623365430312576,84
599623365437998464,84
599623365445684352,82
599623365453370240,84
599623365461056128,91
599623365468741888,94
599623365476427776,91
599623365484113664,96
599623365491799552,103
599623365499485440,106
599623365507171328,111
599623365514857216,118
599623365522542976,123
599623365530228864,120
599623365537914752,125
599623365545600640,137
599623365553286528,142
599623365560972327,140
599623365568658560,135
599623365576344832,130
599623365584031104,123
599623365591717376,106
599623365599403648,84
599623365607090048,60
599623365614776320,33
599623365622462592,21
599623365630148864,21
599623365637835136,14
599623365645521408,9
599623365653207680,19
599623365660893952,19
599623365668580224,16
599623365676266624,21
599623365683952896,24
599623365691639168,24
599623365699325440,29
599623365707011712,29
599623365714697984,21
599623365722384256,26
599623365730070528,38
599623365737756800,38
599623365745443072,31
599623365753129472,31
599623365760815744,41
599623365768502016,45
599623365776188288,38
599623365783874560,41
599623365791560832,53
599623365799247104,45
599623365806933376,45
599623365814619648,55
599623365822306048,50
599623365829992320,48
599623365837678592,58
599623365845364864,55
599623365853051136,48
599623365860737408,50
599623365868423680,55
599623365876109952,55
599623365883796224,50
599623365891482624,50
599623365899168896,55
599623365906855168,55
599623365914541440,50
599623365922227712,53
599623365929913984,55
599623365937600256,53
599623365945286528,50
599623365952972800,53
599623365960659072,55
599623365968345472,55
599623365976031744,55
599623365983718016,55
599623365991404288,53
599623365999090560,55
599623366006776832,60
599623366014463104,58
599623366022149376,53
599623366029835648,58
599623366037522048,60
599623366045208320,58
599623366052894592,58
599623366060580864,58
599623366068267136,58
599623366075953408,60
599623366083639680,60
599623366091325952,58
599623366099012224,58
599623366106698624,58
599623366114384896,60
599623366122071188,60
599623366129757440,60
599623366137443712,65
599623366145129856,62
599623366152816128,55
599623366160502272,58
599623366168188544,62
599623366175874688,60
599623366183560960,60
599623366191247232,62
599623366198933376,62
599623366206619648,62
599623366214305792,62
599623366221992064,58
599623366229678208,55
599623366237364480,58
599623366245050624,70
599623366252736896,84
599623366260423168,87
599623366268109312,82
599623366275795584,77
599623366283481728,65
599623366291168000,53
599623366298854144,55
599623366306540416,60
599623366314226688,62
599623366321912832,60
599623366329599104,60
599623366337285248,62
599623366344971520,65
599623366352657664,58
599623366360343936,26
599623366368030080,-53
599623366375716352,-70
599623366383402624,145
599623366391088768,480
599623366398775040,551
599623366406461184,212
599623366414147456,-120
599623366421833600,-101
599623366429519872,19
599623366437206144,36
599623366444892288,58
599623366452578560,77
599623366460264704,60
599623366467950976,58
599623366475637120,70
599623366483323392,72
599623366491009536,72
599623366498695808,77
599623366506382080,79
599623366514068224,82
599623366521754496,82
599623366529440640,82
599623366537126912,87
599623366544813056,91
599623366552499328,91
599623366560185600,96
599623366567871744,103
599623366575558016,103
599623366583244160,106
599623366590930432,113
599623366598616576,118
599623366606302848,123
599623366613989120,128
599623366621675264,130
599623366629361536,135
599623366637047680,142
599623366644733952,140
599623366652420096,130
599623366660106368,130
599623366667792512,116
599623366675478784,89
599623366683164966,67
599623366690850816,48
599623366698536704,31
599623366706222720,19
599623366713908608,12
599623366721594624,12
599623366729280512,16
599623366736966400,12
599623366744652416,9
599623366752338304,16
599623366760024192,19
599623366767710208,19
599623366775396096,21
599623366783082112,21
599623366790768000,24
599623366798453888,26
599623366806139904,29
599623366813825792,29
599623366821511808,33
599623366829197696,36
599623366836883584,36
599623366844569600,38
599623366852255488,38
599623366859941376,41
599623366867627392,45
599623366875313280,45
599623366882999296,45
599623366890685184,50
599623366898371072,53
599623366906057088,48
599623366913742976,48
599623366921428992,50
599623366929114880,48
599623366936800768,50
599623366944486784,50
599623366952172672,50
599623366959858560,50
599623366967544576,48
599623366975230464,50
599623366982916480,53
599623366990602368,50
599623366998288256,50
599623367005974272,50
599623367013660160,50
599623367021346176,53
599623367029032064,53
599623367036717952,50
599623367044403968,55
599623367052089856,58
599623367059775872,55
599623367067461760,53
599623367075147648,58
599623367082833664,60
599623367090519552,55
599623367098205440,55
599623367105891456,60
599623367113577344,58
599623367121263360,55
599623367128949248,58
599623367136635136,55
599623367144321152,55
599623367152007040,58
599623367159693056,58
599623367167378944,60
599623367175064832,58
599623367182750848,58
599623367190436736,60
599623367198122624,58
599623367205808640,58
599623367213494528,60
599623367221180544,58
599623367228866432,55
599623367236552320,60
599623367244238392,62
599623367251924608,60
599623367259610880,60
599623367267297152,62
599623367274983424,62
599623367282669696,58
599623367290356096,58
599623367298042368,58
599623367305728640,58
599623367313414912,62
599623367321101184,60
599623367328787456,58
599623367336473728,60
599623367344160000,62
599623367351846272,58
599623367359532672,60
599623367367218944,62
599623367374905216,55
599623367382591488,60
599623367390277760,77
599623367397964032,84
599623367405650304,79
599623367413336576,82
599623367421022848,77
599623367428709120,55
599623367436395520,45
599623367444081792,58
599623367451768064,65
599623367459454336,55
599623367467140608,55
599623367474826880,58
599623367482513152,58
599623367490199424,62
599623367497885696,45
599623367505572096,-21
599623367513258368,-96
599623367520944640,-2
599623367528630912,338
599623367536317184,626
599623367544003456,466
599623367551689728,16
599623367559376000,-159
599623367567062272,-38
599623367574748672,26
599623367582434944,36
599623367590121216,70
599623367597807488,65
599623367605493760,43
599623367613180032,58
599623367620866304,70
599623367628552576,62
599623367636238848,62
599623367643925248,72
599623367651611520,74
599623367659297792,72
599623367666984064,77
599623367674670336,79
599623367682356608,79
599623367690042880,82
599623367697729152,87
599623367705415424,89
599623367713101696,91
599623367720788096,99
599623367728474368,103
599623367736160640,106
599623367743846912,111
599623367751533184,118
599623367759219456,123
599623367766905728,125
599623367774592000,130
599623367782278272,130
599623367789964672,130
599623367797650944,128
599623367805337257,120
599623367813023232,106
599623367820709248,87
599623367828395264,58
599623367836081280,38
599623367843767296,26
599623367851453312,16
599623367859139328,12
599623367866825344,9
599623367874511232,9
599623367882197248,12
599623367889883264,14
599623367897569280,12
599623367905255296,14
599623367912941312,16
599623367920627328,16
599623367928313344,19
599623367935999360,19
599623367943685376,21
599623367951371392,26
599623367959057408,26
599623367966743424,26
599623367974429440,29
599623367982115328,33
599623367989801344,38
599623367997487360,38
599623368005173376,41
599623368012859392,41
599623368020545408,41
599623368028231424,43
599623368035917440,48
599623368043603456,50
599623368051289472,45
599623368058975488,45
599623368066661504,48
599623368074347520,48
599623368082033536,48
599623368089719424,45
599623368097405440,50
599623368105091456,53
599623368112777472,45
599623368120463488,43
599623368128149504,48
599623368135835520,53
599623368143521536,53
599623368151207552,48
599623368158893568,50
599623368166579584,53
599623368174265600,53
599623368181951616,50
599623368189637632,53
599623368197323648,53
599623368205009536,50
599623368212695552,53
599623368220381568,55
599623368228067584,53
599623368235753600,50
599623368243439616,53
599623368251125632,53
599623368258811648,55
599623368266497664,58
599623368274183680,55
599623368281869696,55
599623368289555712,53
599623368297241728,55
599623368304927744,58
599623368312613632,55
599623368320299648,53
599623368327985664,58
599623368335671680,58
599623368343357696,58
599623368351043712,53
599623368358729728,53
599623368366415774,58
599623368374101888,60
599623368381788032,55
599623368389474176,58
599623368397160320,58
599623368404846464,58
599623368412532608,58
599623368420218752,58
599623368427904896,60
599623368435591040,58
599623368443277184,53
599623368450963328,55
599623368458649472,60
599623368466335616,58
599623368474021760,55
599623368481707904,58
599623368489394048,58
599623368497080192,50
599623368504766336,53
599623368512452480,65
599623368520138624,79
599623368527824768,82
599623368535510912,79
599623368543197056,74
599623368550883200,60
599623368558569344,50
599623368566255488,55
599623368573941632,60
599623368581627904,60
599623368589314048,58
599623368597000192,58
599623368604686336,60
599623368612372480,58
599623368620058624,43
599623368627744768,-24
599623368635430912,-111
599623368643117056,-21
599623368650803200,345
599623368658489344,691
599623368666175488,565
599623368673861632,74
599623368681547776,-164
599623368689233920,-48
599623368696920064,31
599623368704606208,29
599623368712292352,53
599623368719978496,55
599623368727664640,41
599623368735350784,50
599623368743036928,60
599623368750723072,58
599623368758409216,60
599623368766095360,62
599623368773781504,65
599623368781467648,67
599623368789153792,70
599623368796839936,72
599623368804526080,77
599623368812212224,79
599623368819898368,82
599623368827584512,84
599623368835270656,89
599623368842956800,91
599623368850642944,96
599623368858329088,101
599623368866015232,106
599623368873701376,111
599623368881387520,113
599623368889073664,123
599623368896759808,128
599623368904445952,128
599623368912132096,125
599623368919818240,123
599623368927504461,120
599623368935190784,111
599623368942877056,89
599623368950563328,60
599623368958249600,36
599623368965935872,24
599623368973622272,14
599623368981308544,7
599623368988994816,4
599623368996681088,2
599623369004367360,2
599623369012053632,7
599623369019739904,7
599623369027426176,9
599623369035112448,12
599623369042798848,12
599623369050485120,14
599623369058171392,19
599623369065857664,19
599623369073543936,19
599623369081230208,24
599623369088916480,26
599623369096602752,24
599623369104289024,31
599623369111975296,33
599623369119661696,33
599623369127347968,36
599623369135034240,38
599623369142720512,38
599623369150406784,43
599623369158093056,45
599623369165779328,43
599623369173465600,41
599623369181151872,45
599623369188838272,45
599623369196524544,45
599623369204210816,43
599623369211897088,43
599623369219583360,43
599623369227269632,45
599623369234955904,45
599623369242642176,45
599623369250328448,43
599623369258014848,43
599623369265701120,45
599623369273387392,45
599623369281073664,48
599623369288759936,45
599623369296446208,43
599623369304132480,45
599623369311818752,50
599623369319505024,48
599623369327191296,45
599623369334877696,48
599623369342563968,50
599623369350250240,48
599623369357936512,50
599623369365622784,48
599623369373309056,50
599623369380995328,50
599623369388681600,50
599623369396367872,53
599623369404054272,53
599623369411740544,50
599623369419426816,50
599623369427113088,53
599623369434799360,53
599623369442485632,53
599623369450171904,53
599623369457858176,50
599623369465544448,50
599623369473230848,53
599623369480917120,50
599623369488603322,50
599623369496289536,53
599623369503975808,50
599623369511662080,53
599623369519348352,53
599623369527034624,53
599623369534721024,53
599623369542407296,53
599623369550093568,53
599623369557779840,53
599623369565466112,53
599623369573152384,53
599623369580838656,50
599623369588524928,48
599623369596211200,45
599623369603897600,48
599623369611583872,62
599623369619270144,77
599623369626956416,79
599623369634642688,74
599623369642328960,70
599623369650015232,50
599623369657701504,41
599623369665387776,50
599623369673074048,55
599623369680760448,50
599623369688446720,50
599623369696132992,53
599623369703819264,53
599623369711505536,53
599623369719191808,33
599623369726878080,-45
599623369734564352,-130
599623369742250624,-7
599623369749937024,396
599623369757623296,732
599623369765309568,551
599623369772995840,33
599623369780682112,-171
599623369788368384,-33
599623369796054656,38
599623369803740928,29
599623369811427200,43
599623369819113600,41
599623369826799872,33
599623369834486144,41
599623369842172416,48
599623369849858688,45
599623369857544960,50
599623369865231232,58
599623369872917504,58
599623369880603776,58
599623369888290048,62
599623369895976448,62
599623369903662720,65
599623369911348992,67
599623369919035264,72
599623369926721536,74
599623369934407808,77
599623369942094080,82
599623369949780352,84
599623369957466624,87
599623369965153024,94
599623369972839296,99
599623369980525568,106
599623369988211840,108
599623369995898112,111
599623370003584384,113
599623370011270656,113
599623370018956928,111
599623370026643200,103
599623370034329600,94
599623370042015872,79
599623370049702183,55
599623370057388416,31
599623370065074688,16
599623370072760960,7
599623370080447232,2
599623370088133504,-2
599623370095819904,-2
599623370103506176,-2
599623370111192448,0
599623370118878720,2
599623370126564992,4
599623370134251264,7
599623370141937536,9
599623370149623808,12
599623370157310080,14
599623370164996480,14
599623370172682752,19
599623370180369024,21
599623370188055296,21
599623370195741568,24
599623370203427840,29
599623370211114112,29
599623370218800384,29
599623370226486656,33
599623370234172928,36
599623370241859328,36
599623370249545600,38
599623370257231872,41
599623370264918144,41
599623370272604416,38
599623370280290688,41
599623370287976960,43
599623370295663232,43
599623370303349504,41
599623370311035904,43
599623370318722176,43
599623370326408448,41
599623370334094720,43
599623370341780992,45
599623370349467264,43
599623370357153536,43
599623370364839808,45
599623370372526080,43
599623370380212480,43
599623370387898752,43
599623370395585024,48
599623370403271296,45
599623370410957568,43
599623370418643840,45
599623370426330112,45
599623370434016384,45
599623370441702656,48
599623370449388928,45
599623370457075328,43
599623370464761600,45
599623370472447872,48
599623370480134144,48
599623370487820416,45
599623370495506688,48
599623370503192960,45
599623370510879232,45
599623370518565504,48
599623370526251904,48
599623370533938176,45
599623370541624448,48
599623370549310720,48
599623370556996992,48
599623370564683264,48
599623370572369536,50
599623370580055808,48
599623370587742080,50
599623370595428480,50
599623370603114752,48
599623370610801044,50
599623370618486912,50
599623370626172800,50
599623370633858816,50
599623370641544704,53
599623370649230720,50
599623370656916608,50
599623370664602496,50
599623370672288512,50
599623370679974400,50
599623370687660288,45
599623370695346304,38
599623370703032192,41
599623370710718208,58
599623370718404096,74
599623370726089984,74
599623370733776000,74
599623370741461888,70
599623370749147904,50
599623370756833792,38
599623370764519680,48
599623370772205696,53
599623370779891584,48
599623370787577472,48
599623370795263488,50
599623370802949376,50
599623370810635392,48
599623370818321280,33
599623370826007168,-45
599623370833693184,-132
599623370841379072,-21
599623370849065088,381
599623370856750976,751
599623370864436864,606
599623370872122880,65
599623370879808768,-193
599623370887494784,-55
599623370895180672,41
599623370902866560,26
599623370910552576,33
599623370918238464,36
599623370925924352,29
599623370933610368,36
599623370941296256,43
599623370948982272,43
599623370956668160,45
599623370964354048,50
599623370972040064,53
599623370979725952,55
599623370987411968,58
599623370995097856,60
599623371002783744,62
599623371010469760,65
599623371018155648,67
599623371025841536,72
599623371033527552,77
599623371041213440,79
599623371048899456,84
599623371056585344,87
599623371064271232,91
599623371071957248,99
599623371079643136,103
599623371087329152,106
599623371095015040,108
599623371102700928,108
599623371110386944,111
599623371118072832,106
599623371125758720,101
599623371133444736,91
599623371141130624,74
599623371148816640,50
599623371156502528,29
599623371164188416,14
599623371171874478,4
599623371179560832,0
599623371187247232,-2
599623371194933504,-4
599623371202619904,-4
599623371210306304,0
599623371217992576,2
599623371225678976,4
599623371233365376,4
599623371241051648,7
599623371248738048,12
599623371256424448,12
599623371264110720,12
599623371271797120,14
599623371279483392,16
599623371287169792,19
599623371294856192,21
599623371302542464,24
599623371310228864,26
599623371317915264,26
599623371325601536,29
599623371333287936,31
599623371340974336,33
599623371348660608,33
599623371356347008,33
599623371364033408,36
599623371371719680,38
599623371379406080,38
599623371387092480,36
599623371394778752,38
599623371402465152,38
599623371410151552,36
599623371417837824,36
599623371425524224,38
599623371433210624,38
599623371440896896,36
599623371448583296,36
599623371456269568,38
599623371463955968,38
599623371471642368,36
599623371479328640,36
599623371487015040,38
599623371494701440,38
599623371502387712,38
599623371510074112,38
599623371517760512,38
599623371525446784,38
599623371533133184,38
599623371540819584,38
599623371548505856,38
599623371556192256,41
599623371563878656,41
599623371571564928,41
599623371579251328,43
599623371586937728,41
599623371594624000,41
599623371602310400,43
599623371609996800,45
599623371617683072,43
599623371625369472,43
599623371633055744,43
599623371640742144,45
599623371648428544,43
599623371656114816,43
599623371663801216,45
599623371671487616,45
599623371679173888,45
599623371686860288,45
599623371694546688,45
599623371702232960,43
599623371709919360,45
599623371717605760,45
599623371725292032,45
599623371732978426,48
599623371740664576,48
599623371748350720,43
599623371756036864,41
599623371763723008,41
599623371771409152,31
599623371779095296,29
599623371786781440,50
599623371794467584,72
599623371802153728,74
599623371809839872,70
599623371817526016,65
599623371825212160,48
599623371832898304,36
599623371840584448,43
599623371848270592,48
599623371855956736,45
599623371863642880,45
599623371871329024,45
599623371879015168,45
599623371886701312,45
599623371894387456,38
599623371902073600,-19
599623371909759744,-123
599623371917445888,-87
599623371925132032,258
599623371932818176,708
599623371940504320,739
599623371948190592,224
599623371955876736,-195
599623371963562880,-130
599623371971249024,16
599623371978935168,29
599623371986621312,26
599623371994307456,29
599623372001993600,24
599623372009679744,26
599623372017365888,36
599623372025052032,38
599623372032738176,41
599623372040424320,45
599623372048110464,48
599623372055796608,53
599623372063482752,53
599623372071168896,58
599623372078855040,60
599623372086541184,62
599623372094227328,67
599623372101913472,72
599623372109599616,74
599623372117285760,77
599623372124971904,82
599623372132658048,87
599623372140344192,91
599623372148030336,96
599623372155716480,103
599623372163402624,106
599623372171088768,108
599623372178774912,113
599623372186461056,113
599623372194147200,108
599623372201833344,106
599623372209519488,99
599623372217205632,79
599623372224891776,53
599623372232577920,29
599623372240264064,9
599623372247950208,-2
599623372255636352,-9
599623372263322496,-12
599623372271008640,-12
599623372278694784,-12
599623372286380928,-9
599623372294067113,-7
599623372301753344,-2
599623372309439616,-2
599623372317125888,2
599623372324812160,4
599623372332498432,7
599623372340184832,7
599623372347871104,9
599623372355557376,14
599623372363243648,16
599623372370929920,14
599623372378616192,19
599623372386302464,21
599623372393988736,21
599623372401675008,21
599623372409361408,26
599623372417047680,29
599623372424733952,29
599623372432420224,29
599623372440106496,31
599623372447792768,31
599623372455479040,31
599623372463165312,31
599623372470851584,29
599623372478537856,31
599623372486224256,31
599623372493910528,31
599623372501596800,31
599623372509283072,31
599623372516969344,31
599623372524655616,33
599623372532341888,33
599623372540028160,33
599623372547714432,31
599623372555400832,33
599623372563087104,36
599623372570773376,33
599623372578459648,33
599623372586145920,36
599623372593832192,36
599623372601518464,36
599623372609204736,36
599623372616891008,38
599623372624577408,38
599623372632263680,38
599623372639949952,38
599623372647636224,38
599623372655322496,41
599623372663008768,38
599623372670695040,38
599623372678381312,41
599623372686067584,38
599623372693753856,38
599623372701440256,41
599623372709126528,41
599623372716812800,41
599623372724499072,41
599623372732185344,41
599623372739871616,41
599623372747557888,41
599623372755244160,41
599623372762930432,43
599623372770616832,45
599623372778303104,41
599623372785989376,38
599623372793675648,38
599623372801361920,31
599623372809048192,21
599623372816734464,36
599623372824420736,62
599623372832107008,74
599623372839793408,74
599623372847479680,67
599623372855165974,48
599623372862852224,33
599623372870538496,38
599623372878224768,43
599623372885911040,41
599623372893597312,41
599623372901283712,43
599623372908969984,41
599623372916656256,43
599623372924342528,41
599623372932028800,2
599623372939715072,-96
599623372947401344,-130
599623372955087616,120
599623372962773888,592
599623372970460288,816
599623372978146560,418
599623372985832832,-154
599623372993519104,-234
599623373001205376,-41
599623373008891648,26
599623373016577920,33
599623373024264192,33
599623373031950464,19
599623373039636736,26
599623373047323136,38
599623373055009408,38
599623373062695680,38
599623373070381952,45
599623373078068224,48
599623373085754496,50
599623373093440768,53
599623373101127040,58
599623373108813312,60
599623373116499712,65
599623373124185984,67
599623373131872256,72
599623373139558528,77
599623373147244800,82
599623373154931072,87
599623373162617344,91
599623373170303616,96
599623373177989888,101
599623373185676288,106
599623373193362560,111
599623373201048832,116
599623373208735104,118
599623373216421376,120
599623373224107648,118
599623373231793920,111
599623373239480192,101
599623373247166464,84
599623373254852736,58
599623373262539136,29
599623373270225408,7
599623373277911680,-4
599623373285597952,-14
599623373293284224,-19
599623373300970496,-21
599623373308656768,-21
599623373316343040,-16
599623373324029312,-14
599623373331715712,-14
599623373339401984,-12
599623373347088256,-4
599623373354774528,0
599623373362460800,-2
599623373370147072,2
599623373377833344,9
599623373385519616,9
599623373393205888,9
599623373400892288,14
599623373408578560,16
599623373416264835,16
599623373423951104,19
599623373431637376,21
599623373439323648,21
599623373447009920,24
599623373454696192,24
599623373462382592,26
599623373470068864,26
599623373477755136,26
599623373485441408,24
599623373493127680,24
599623373500813952,26
599623373508500224,26
599623373516186496,24
599623373523872768,24
599623373531559168,24
599623373539245440,26
599623373546931712,26
599623373554617984,26
599623373562304256,29
599623373569990528,29
599623373577676800,29
599623373585363072,26
599623373593049344,29
599623373600735616,29
599623373608422016,29
599623373616108288,29
599623373623794560,31
599623373631480832,31
599623373639167104,31
599623373646853376,31
599623373654539648,33
599623373662225920,33
599623373669912192,33
599623373677598592,31
599623373685284864,33
599623373692971136,36
599623373700657408,33
599623373708343680,33
599623373716029952,33
599623373723716224,33
599623373731402496,36
599623373739088768,36
599623373746775168,33
599623373754461440,33
599623373762147712,36
599623373769833984,36
599623373777520256,31
599623373785206528,24
599623373792892800,21
599623373800579072,36
599623373808265344,60
599623373815951744,70
599623373823638016,70
599623373831324288,62
599623373839010560,43
599623373846696832,26
599623373854383104,31
599623373862069376,38
599623373869755648,36
599623373877441920,36
599623373885128192,38
599623373892814592,36
599623373900500864,38
599623373908187136,33
599623373915873408,-14
599623373923559680,-118
599623373931245952,-118
599623373938932224,193
599623373946618496,667
599623373954304768,785
599623373961991168,280
599623373969677440,-251
599623373977363700,-234
599623373985049600,-33
599623373992735488,24
599623374000421504,43
599623374008107392,38
599623374015793408,16
599623374023479296,29
599623374031165184,41
599623374038851200,38
599623374046537088,38
599623374054222976,45
599623374061908992,50
599623374069594880,50
599623374077280896,55
599623374084966784,60
599623374092652672,62
599623374100338688,65
599623374108024576,72
599623374115710592,74
599623374123396480,77
599623374131082368,82
599623374138768384,89
599623374146454272,91
599623374154140160,99
599623374161826176,106
599623374169512064,111
599623374177198080,116
599623374184883968,120
599623374192569856,123
599623374200255872,120
599623374207941760,118
599623374215627776,113
599623374223313664,101
599623374230999552,77
599623374238685568,45
599623374246371456,19
599623374254057472,0
599623374261743360,-12
599623374269429248,-19
599623374277115264,-24
599623374284801152,-26
599623374292487040,-26
599623374300173056,-21
599623374307858944,-19
599623374315544960,-16
599623374323230848,-12
599623374330916736,-7
599623374338602752,-4
599623374346288640,-2
599623374353974656,2
599623374361660544,4
599623374369346432,4
599623374377032448,9
599623374384718336,12
599623374392404224,14
599623374400090240,16
599623374407776128,19
599623374415462144,19
599623374423148032,19
599623374430833920,21
599623374438519936,21
599623374446205824,24
599623374453891840,24
599623374461577728,24
599623374469263616,24
599623374476949632,24
599623374484635520,24
599623374492321408,26
599623374500007424,29
599623374507693312,26
599623374515379328,24
599623374523065216,24
599623374530751104,29
599623374538437130,31
599623374546123392,29
599623374553809664,29
599623374561495808,31
599623374569182080,31
599623374576868224,31
599623374584554496,29
599623374592240640,29
599623374599926912,31
599623374607613184,33
599623374615299328,33
599623374622985600,33
599623374630671744,33
599623374638358016,33
599623374646044160,36
599623374653730432,36
599623374661416576,33
599623374669102848,33
599623374676789120,26
599623374684475264,21
599623374692161536,29
599623374699847680,50
599623374707533952,70
599623374715220096,72
599623374722906368,65
599623374730592640,48
599623374738278784,31
599623374745965056,31
599623374753651200,41
599623374761337472,41
599623374769023616,38
599623374776709888,41
599623374784396032,43
599623374792082304,43
599623374799768576,38
599623374807454720,4
599623374815140992,-89
599623374822827136,-116
599623374830513408,147
599623374838199552,613
599623374845885824,783
599623374853572096,306
599623374861258240,-265
599623374868944512,-277
599623374876630656,-62
599623374884316928,-2
599623374892003072,50
599623374899689344,79
599623374907375488,38
599623374915061760,38
599623374922748032,62
599623374930434176,58
599623374938120448,53
599623374945806592,65
599623374953492864,67
599623374961179008,65
599623374968865280,72
599623374976551552,77
599623374984237696,79
599623374991923968,84
599623374999610112,89
599623375007296384,91
599623375014982528,94
599623375022668800,101
599623375030354944,108
599623375038041216,113
599623375045727488,120
599623375053413632,125
599623375061099904,132
599623375068786048,140
599623375076472320,142
599623375084158464,147
599623375091844736,149
599623375099530904,147
599623375107217152,140
599623375114903424,125
599623375122589696,96
599623375130275968,60
599623375137962240,26
599623375145648640,2
599623375153334912,-12
599623375161021184,-21
599623375168707456,-26
599623375176393728,-26
599623375184080000,-26
599623375191766272,-24
599623375199452544,-19
599623375207138816,-16
599623375214825216,-12
599623375222511488,-9
599623375230197760,-7
599623375237884032,-4
599623375245570304,0
599623375253256576,4
599623375260942848,7
599623375268629120,9
599623375276315392,14
599623375284001664,14
599623375291688064,16
599623375299374336,16
599623375307060608,21
599623375314746880,24
599623375322433152,21
599623375330119424,21
599623375337805696,24
599623375345491968,26
599623375353178240,21
599623375360864640,21
599623375368550912,24
599623375376237184,24
599623375383923456,26
599623375391609728,26
599623375399296000,26
599623375406982272,29
599623375414668544,29
599623375422354816,26
599623375430041216,24
599623375437727488,26
599623375445413760,31
599623375453100032,33
599623375460786304,31
599623375468472576,31
599623375476158848,29
599623375483845120,29
599623375491531392,29
599623375499217664,21
599623375506904064,16
599623375514590336,26
599623375522276608,50
599623375529962880,62
599623375537649152,62
599623375545335424,60
599623375553021696,45
599623375560707968,29
599623375568394240,26
599623375576080640,33
599623375583766912,31
599623375591453184,29
599623375599139456,36
599623375606825728,41
599623375614512000,36
599623375622198272,33
599623375629884544,16
599623375637570816,-62
599623375645257216,-135
599623375652943488,36
599623375660629765,468
599623375668316032,746
599623375676002304,403
599623375683688576,-224
599623375691374848,-338
599623375699061120,-101
599623375706747520,-31
599623375714433792,16
599623375722120064,99
599623375729806336,65
599623375737492608,31
599623375745178880,62
599623375752865152,67
599623375760551424,58
599623375768237696,65
599623375775924096,72
599623375783610368,70
599623375791296640,74
599623375798982912,79
599623375806669184,82
599623375814355456,87
599623375822041728,94
599623375829728000,99
599623375837414272,101
599623375845100544,106
599623375852786944,116
599623375860473216,123
599623375868159488,125
599623375875845760,130
599623375883532032,142
599623375891218304,152
599623375898904576,157
599623375906590848,159
599623375914277120,161
599623375921963520,157
599623375929649792,149
599623375937336064,137
599623375945022336,106
599623375952708608,62
599623375960394880,24
599623375968081152,-2
599623375975767424,-14
599623375983453696,-24
599623375991140096,-33
599623375998826368,-33
599623376006512640,-29
599623376014198912,-29
599623376021885184,-29
599623376029571456,-24
599623376037257728,-16
599623376044944000,-14
599623376052630272,-14
599623376060316544,-9
599623376068002944,-2
599623376075689216,0
599623376083375488,0
599623376091061760,2
599623376098748032,7
599623376106434304,9
599623376114120576,9
599623376121806848,14
599623376129493120,14
599623376137179520,14
599623376144865792,14
599623376152552064,16
599623376160238336,16
599623376167924608,19
599623376175610880,19
599623376183297152,16
599623376190983424,16
599623376198669696,16
599623376206356096,19
599623376214042368,16
599623376221728626,14
599623376229414912,12
599623376237101184,12
599623376244787328,26
599623376252473600,43
599623376260159744,48
599623376267846016,50
599623376275532160,43
599623376283218432,24
599623376290904704,19
599623376298590848,26
599623376306277120,26
599623376313963264,26
599623376321649536,26
599623376329335680,29
599623376337021952,29
599623376344708096,29
599623376352394368,26
599623376360080640,-4
599623376367766784,-99
599623376375453056,-118
599623376383139200,147
599623376390825472,577
599623376398511616,667
599623376406197888,166
599623376413884160,-321
599623376421570304,-248
599623376429256576,-55
599623376436942720,-31
599623376444628992,48
599623376452315136,94
599623376460001408,41
599623376467687552,36
599623376475373824,65
599623376483060096,55
599623376490746240,53
599623376498432512,65
599623376506118656,65
599623376513804928,67
599623376521491072,74
599623376529177344,74
599623376536863616,77
599623376544549760,87
599623376552236032,91
599623376559922176,94
599623376567608448,99
599623376575294592,106
599623376582980864,113
599623376590667008,120
599623376598353280,125
599623376606039552,130
599623376613725696,145
599623376621411968,152
599623376629098112,154
599623376636784384,157
599623376644470528,157
599623376652156800,154
599623376659843072,140
599623376667529216,106
599623376675215488,65
599623376682901632,29
599623376690587904,0
599623376698274048,-21
599623376705960320,-36
599623376713646592,-36
599623376721332736,-33
599623376729019008,-33
599623376736705152,-33
599623376744391424,-29
599623376752077568,-24
599623376759763840,-21
599623376767449984,-21
599623376775136256,-16
599623376782822404,-12
599623376790508288,-9
599623376798194176,-4
599623376805880192,-2
599623376813566080,-2
599623376821252096,2
599623376828937984,7
599623376836623872,7
599623376844309888,9
599623376851995776,12
599623376859681664,9
599623376867367680,12
599623376875053568,16
599623376882739584,16
599623376890425472,16
599623376898111360,16
599623376905797376,12
599623376913483264,9
599623376921169280,12
599623376928855168,9
599623376936541056,9
599623376944227072,24
599623376951912960,41
599623376959598848,45
599623376967284864,45
599623376974970752,38
599623376982656768,19
599623376990342656,14
599623376998028544,21
599623377005714560,24
599623377013400448,19
599623377021086464,21
599623377028772352,26
599623377036458240,24
599623377044144256,21
599623377051830144,21
599623377059516032,-12
599623377067202048,-101
599623377074887936,-123
599623377082573952,130
599623377090259840,551
599623377097945728,635
599623377105631744,159
599623377113317632,-287
599623377121003648,-224
599623377128689536,-60
599623377136375424,-33
599623377144061440,45
599623377151747328,84
599623377159433344,29
599623377167119232,29
599623377174805120,58
599623377182491136,50
599623377190177024,45
599623377197862912,58
599623377205548928,60
599623377213234816,60
599623377220920832,62
599623377228606720,67
599623377236292608,74
599623377243978624,79
599623377251664512,77
599623377259350528,82
599623377267036416,91
599623377274722304,99
599623377282408320,103
599623377290094208,111
599623377297780096,118
599623377305466112,123
599623377313152000,132
599623377320838016,137
599623377328523904,142
599623377336209792,142
599623377343895830,140
599623377351582080,135
599623377359268352,123
599623377366954624,91
599623377374640896,53
599623377382327168,19
599623377390013568,-9
599623377397699840,-24
599623377405386112,-29
599623377413072384,-31
599623377420758656,-33
599623377428444928,-31
599623377436131200,-26
599623377443817472,-26
599623377451503744,-24
599623377459190144,-19
599623377466876416,-16
599623377474562688,-14
599623377482248960,-9
599623377489935232,-4
599623377497621504,-4
599623377505307776,-2
599623377512994048,2
599623377520680320,7
599623377528366592,9
599623377536052992,9
599623377543739264,7
599623377551425536,9
599623377559111808,16
599623377566798080,16
599623377574484352,12
599623377582170624,14
599623377589856896,19
599623377597543168,14
599623377605229568,12
599623377612915840,12
599623377620602112,7
599623377628288384,12
599623377635974656,26
599623377643660928,38
599623377651347200,43
599623377659033472,48
599623377666719744,38
599623377674406144,19
599623377682092416,16
599623377689778688,26
599623377697464960,21
599623377705151232,16
599623377712837504,21
599623377720523776,24
599623377728210048,21
599623377735896320,26
599623377743582720,26
599623377751268992,0
599623377758955264,-82
599623377766641536,-132
599623377774327808,60
599623377782014080,468
599623377789700352,645
599623377797386624,261
599623377805072896,-217
599623377812759168,-227
599623377820445568,-62
599623377828131840,-24
599623377835818112,31
599623377843504384,72
599623377851190656,31
599623377858876928,26
599623377866563200,53
599623377874249472,50
599623377881935744,45
599623377889622144,53
599623377897308416,58
599623377904994695,55
599623377912680960,58
599623377920367232,62
599623377928053504,70
599623377935739776,72
599623377943426048,74
599623377951112448,79
599623377958798720,84
599623377966484992,87
599623377974171264,94
599623377981857536,103
599623377989543808,106
599623377997230080,113
599623378004916352,125
599623378012602624,130
599623378020289024,128
599623378027975296,132
599623378035661568,135
599623378043347840,125
599623378051034112,108
599623378058720384,82
599623378066406656,48
599623378074092928,14
599623378081779200,-7
599623378089465472,-21
599623378097151872,-29
599623378104838144,-29
599623378112524416,-29
599623378120210688,-29
599623378127896960,-26
599623378135583232,-24
599623378143269504,-19
599623378150955776,-12
599623378158642048,-12
599623378166328448,-12
599623378174014720,-9
599623378181700992,-4
599623378189387264,-4
599623378197073536,0
599623378204759808,2
599623378212446080,4
599623378220132352,7
599623378227818624,9
599623378235505024,12
599623378243191296,9
599623378250877568,12
599623378258563840,16
599623378266250112,16
599623378273936384,16
599623378281622656,19
599623378289308928,19
599623378296995200,16
599623378304681472,16
599623378312367872,19
599623378320054144,16
599623378327740416,9
599623378335426688,4
599623378343112960,14
599623378350799232,33
599623378358485504,48
599623378366171776,45
599623378373858048,43
599623378381544448,31
599623378389230720,14
599623378396916992,16
599623378404603264,26
599623378412289536,21
599623378419975808,19
599623378427662080,26
599623378435348352,24
599623378443034624,19
599623378450721024,26
599623378458407296,26
599623378466093556,-12
599623378473779456,-96
599623378481465344,-125
599623378489151232,89
599623378496837120,485
599623378504522880,618
599623378512208768,215
599623378519894656,-219
599623378527580544,-198
599623378535266432,-41
599623378542952320,-7
599623378550638080,38
599623378558323968,62
599623378566009856,24
599623378573695744,26
599623378581381632,45
599623378589067520,41
599623378596753280,45
599623378604439168,53
599623378612125056,48
599623378619810944,50
599623378627496832,58
599623378635182720,60
599623378642868608,60
599623378650554368,67
599623378658240256,70
599623378665926144,72
599623378673612032,79
599623378681297920,87
599623378688983808,91
599623378696669568,99
599623378704355456,103
599623378712041344,103
599623378719727232,113
599623378727413120,125
599623378735099008,125
599623378742784768,123
599623378750470656,125
599623378758156544,118
599623378765842432,99
599623378773528320,72
599623378781214208,41
599623378788900096,12
599623378796585856,-4
599623378804271744,-16
599623378811957632,-29
599623378819643520,-31
599623378827329408,-21
599623378835015296,-19
599623378842701056,-24
599623378850386944,-21
599623378858072832,-12
599623378865758720,-14
599623378873444608,-14
599623378881130496,-7
599623378888816256,-7
599623378896502144,-4
599623378904188032,0
599623378911873920,-2
599623378919559808,0
599623378927245696,7
599623378934931456,4
599623378942617344,4
599623378950303232,12
599623378957989120,14
599623378965675008,12
599623378973360896,14
599623378981046784,16
599623378988732544,14
599623378996418432,12
599623379004104320,16
599623379011790208,19
599623379019476096,19
599623379027161899,19
599623379034848128,21
599623379042534400,14
599623379050220672,16
599623379057906944,21
599623379065593216,19
599623379073279616,21
599623379080965888,24
599623379088652160,24
599623379096338432,21
599623379104024704,16
599623379111710976,19
599623379119397248,24
599623379127083520,21
599623379134769792,21
599623379142456192,29
599623379150142464,29
599623379157828736,21
599623379165515008,21
599623379173201280,26
599623379180887552,24
599623379188573824,21
599623379196260096,21
599623379203946368,16
599623379211632640,29
599623379219319040,53
599623379227005312,55
599623379234691584,48
599623379242377856,48
599623379250064128,38
599623379257750400,21
599623379265436672,24
599623379273122944,31
599623379280809216,26
599623379288495616,26
599623379296181888,31
599623379303868160,33
599623379311554432,31
599623379319240704,26
599623379326926976,14
599623379334613248,-48
599623379342299520,-123
599623379349985792,-14
599623379357672192,338
599623379365358464,606
599623379373044736,391
599623379380731008,-82
599623379388417280,-224
599623379396103552,-70
599623379403789824,4
599623379411476096,24
599623379419162368,50
599623379426848640,33
599623379434535040,24
599623379442221312,43
599623379449907584,48
599623379457593856,41
599623379465280128,45
599623379472966400,50
599623379480652672,48
599623379488338944,50
599623379496025216,58
599623379503711616,60
599623379511397888,58
599623379519084160,60
599623379526770432,72
599623379534456704,74
599623379542142976,74
599623379549829248,79
599623379557515520,82
599623379565201792,87
599623379572888192,99
599623379580574464,103
599623379588260760,103
599623379595946624,111
599623379603632512,116
599623379611318400,116
599623379619004288,111
599623379626690048,103
599623379634375936,94
599623379642061824,70
599623379649747712,36
599623379657433600,12
599623379665119488,-2
599623379672805248,-12
599623379680491136,-16
599623379688177024,-21
599623379695862912,-19
599623379703548800,-16
599623379711234688,-16
599623379718920448,-16
599623379726606336,-12
599623379734292224,-4
599623379741978112,-2
599623379749664000,-4
599623379757349888,-2
599623379765035776,0
599623379772721536,4
599623379780407424,4
599623379788093312,7
599623379795779200,12
599623379803465088,9
599623379811150976,7
599623379818836736,7
599623379826522624,14
599623379834208512,16
599623379841894400,16
599623379849580288,12
599623379857266176,14
599623379864951936,19
599623379872637824,21
599623379880323712,21
599623379888009600,19
599623379895695488,16
599623379903381376,21
599623379911067264,24
599623379918753024,19
599623379926438912,19
599623379934124800,21
599623379941810688,19
599623379949496576,24
599623379957182464,31
599623379964868224,24
599623379972554112,16
599623379980240000,21
599623379987925888,29
599623379995611776,26
599623380003297664,26
599623380010983424,26
599623380018669312,26
599623380026355200,29
599623380034041088,26
599623380041726976,26
599623380049412864,26
599623380057098624,26
599623380064784512,31
599623380072470400,31
599623380080156288,24
599623380087842176,26
599623380095528064,29
599623380103213952,29
599623380110899712,33
599623380118585600,33
599623380126271488,29
599623380133957376,24
599623380141643264,31
599623380149329103,33
599623380157015424,26
599623380164701696,31
599623380172387968,33
599623380180074240,29
599623380187760512,29
599623380195446912,33
599623380203133184,31
599623380210819456,26
599623380218505728,31
599623380226192000,31
599623380233878272,26
599623380241564544,33
599623380249250816,36
599623380256937088,31
599623380264623488,31
599623380272309760,29
599623380279996032,29
599623380287682304,33
599623380295368576,24
599623380303054848,16
599623380310741120,29
599623380318427392,48
599623380326113664,53
599623380333799936,55
599623380341486336,58
599623380349172608,43
599623380356858880,26
599623380364545152,29
599623380372231424,33
599623380379917696,31
599623380387603968,33
599623380395290240,38
599623380402976512,31
599623380410662912,26
599623380418349184,33
599623380426035456,31
599623380433721728,-19
599623380441408000,-106
599623380449094272,-79
599623380456780544,195
599623380464466816,526
599623380472153088,495
599623380479839488,84
599623380487525760,-183
599623380495212032,-101
599623380502898304,-2
599623380510584576,12
599623380518270848,41
599623380525957120,45
599623380533643392,26
599623380541329664,41
599623380549015936,50
599623380556702336,38
599623380564388608,38
599623380572074880,50
599623380579761152,53
599623380587447424,50
599623380595133696,50
599623380602819968,55
599623380610506240,58
599623380618192512,60
599623380625878912,65
599623380633565184,65
599623380641251456,62
599623380648937728,74
599623380656624000,84
599623380664310272,77
599623380671996544,77
599623380679682816,89
599623380687369088,94
599623380695055488,96
599623380702741760,99
599623380710427964,94
599623380718113792,94
599623380725799680,99
599623380733485696,89
599623380741171584,70
599623380748857600,53
599623380756543488,31
599623380764229376,14
599623380771915392,-2
599623380779601280,-9
599623380787287168,-12
599623380794973184,-14
599623380802659072,-14
599623380810345088,-14
599623380818030976,-9
599623380825716864,-4
599623380833402880,-2
599623380841088768,-2
599623380848774784,-2
599623380856460672,-4
599623380864146560,0
599623380871832576,12
599623380879518464,12
599623380887204352,2
599623380894890368,0
599623380902576256,4
599623380910262272,14
599623380917948160,16
599623380925634048,12
599623380933320064,12
599623380941005952,16
599623380948691968,19
599623380956377856,19
599623380964063744,21
599623380971749760,21
599623380979435648,16
599623380987121664,19
599623380994807552,26
599623381002493440,21
599623381010179456,16
599623381017865344,26
599623381025551232,26
599623381033237248,16
599623381040923136,19
599623381048609152,26
599623381056295040,24
599623381063980928,21
599623381071666944,19
599623381079352832,26
599623381087038848,26
599623381094724736,21
599623381102410624,24
599623381110096640,24
599623381117782528,19
599623381125468416,26
599623381133154432,29
599623381140840320,24
599623381148526336,24
599623381156212224,29
599623381163898112,29
599623381171584128,29
599623381179270016,24
599623381186956032,26
599623381194641920,29
599623381202327808,29
599623381210013824,31
599623381217699712,29
599623381225385600,31
599623381233071616,26
599623381240757504,21
599623381248443520,33
599623381256129408,36
599623381263815296,26
599623381271501398,29
599623381279187712,36
599623381286873984,29
599623381294560128,26
599623381302246400,31
599623381309932544,29
599623381317618816,24
599623381325304960,24
599623381332991232,33
599623381340677504,48
599623381348363648,53
599623381356049920,53
599623381363736064,50
599623381371422336,38
599623381379108480,26
599623381386794752,26
599623381394480896,26
599623381402167168,29
599623381409853440,33
599623381417539584,29
599623381425225856,29
599623381432912000,33
599623381440598272,33
599623381448284416,21
599623381455970688,-24
599623381463656960,-101
599623381471343104,-65
599623381479029376,198
599623381486715520,478
599623381494401792,425
599623381502087936,58
599623381509774208,-164
599623381517460352,-84
599623381525146624,-2
599623381532832896,14
599623381540519040,48
599623381548205312,50
599623381555891456,29
599623381563577728,31
599623381571263872,45
599623381578950144,45
599623381586636416,41
599623381594322560,50
599623381602008832,53
599623381609694976,48
599623381617381248,55
599623381625067392,60
599623381632753664,58
599623381640439808,60
599623381648126080,67
599623381655812352,70
599623381663498496,72
599623381671184768,74
599623381678870912,79
599623381686557184,77
599623381694243328,87
599623381701929600,96
599623381709615872,99
599623381717302016,101
599623381724988288,108
599623381732674432,106
599623381740360704,103
599623381748046848,96
599623381755733120,87
599623381763419264,77
599623381771105536,48
599623381778791808,19
599623381786477952,9
599623381794164224,-2
599623381801850368,-12
599623381809536640,-9
599623381817222784,-12
599623381824909056,-19
599623381832595172,-9
599623381840281472,-7
599623381847967744,-9
599623381855654016,-4
599623381863340288,-2
599623381871026560,0
599623381878712960,0
599623381886399232,-2
599623381894085504,0
599623381901771776,4
599623381909458048,7
599623381917144320,9
599623381924830592,14
599623381932516864,14
599623381940203136,12
599623381947889536,14
599623381955575808,19
599623381963262080,21
599623381970948352,21
599623381978634624,24
599623381986320896,24
599623381994007168,21
599623382001693440,24
599623382009379712,29
599623382017065984,26
599623382024752384,24
599623382032438656,21
599623382040124928,24
599623382047811200,26
599623382055497472,29
599623382063183744,29
599623382070870016,29
599623382078556288,26
599623382086242560,26
599623382093928960,24
599623382101615232,24
599623382109301504,29
599623382116987776,33
599623382124674048,29
599623382132360320,24
599623382140046592,29
599623382147732864,33
599623382155419136,31
599623382163105536,26
599623382170791808,26
599623382178478080,33
599623382186164352,33
599623382193850624,26
599623382201536896,31
599623382209223168,38
599623382216909440,33
599623382224595712,29
599623382232281984,36
599623382239968384,36
599623382247654656,29
599623382255340928,31
599623382263027200,33
599623382270713472,33
599623382278399744,36
599623382286086016,38
599623382293772288,29
599623382301458560,33
599623382309144960,38
599623382316831232,31
599623382324517504,33
599623382332203776,41
599623382339890048,36
599623382347576320,33
599623382355262592,36
599623382362948864,36
599623382370635136,33
599623382378321536,36
599623382386007808,38
599623382393694033,36
599623382401379968,36
599623382409065856,36
599623382416751744,36
599623382424437632,41
599623382432123392,38
599623382439809280,29
599623382447495168,29
599623382455181056,38
599623382462866944,50
599623382470552832,62
599623382478238592,62
599623382485924480,53
599623382493610368,50
599623382501296256,41
599623382508982144,29
599623382516668032,31
599623382524353792,33
599623382532039680,36
599623382539725568,36
599623382547411456,36
599623382555097344,36
599623382562783232,36
599623382570469120,33
599623382578154880,-7
599623382585840768,-91
599623382593526656,-84
599623382601212544,161
599623382608898432,495
599623382616584320,509
599623382624270080,128
599623382631955968,-166
599623382639641856,-111
599623382647327744,-2
599623382655013632,9
599623382662699520,43
599623382670385280,55
599623382678071168,26
599623382685757056,31
599623382693442944,50
599623382701128832,45
599623382708814720,43
599623382716500608,53
599623382724186368,53
599623382731872256,50
599623382739558144,55
599623382747244032,60
599623382754929920,60
599623382762615808,58
599623382770301568,67
599623382777987456,74
599623382785673344,72
599623382793359232,77
599623382801045120,84
599623382808731008,84
599623382816416768,87
599623382824102656,94
599623382831788544,99
599623382839474432,103
599623382847160320,111
599623382854846208,108
599623382862531968,106
599623382870217856,103
599623382877903744,99
599623382885589632,84
599623382893275520,60
599623382900961408,38
599623382908647296,21
599623382916333056,4
599623382924018944,-7
599623382931704832,-12
599623382939390720,-12
599623382947076608,-12
599623382954762376,-12
599623382962448640,-9
599623382970134912,-9
599623382977821184,-7
599623382985507456,-2
599623382993193728,2
599623383000880128,2
599623383008566400,0
599623383016252672,2
599623383023938944,2
599623383031625216,2
599623383039311488,9
599623383046997760,12
599623383054684032,14
599623383062370304,19
599623383070056704,16
599623383077742976,14
599623383085429248,16
599623383093115520,24
599623383100801792,24
599623383108488064,21
599623383116174336,29
599623383123860608,26
599623383131546880,21
599623383139233152,29
599623383146919552,26
599623383154605824,21
599623383162292096,29
599623383169978368,31
599623383177664640,24
599623383185350912,26
599623383193037184,29
599623383200723456,26
599623383208409728,29
599623383216096128,29
599623383223782400,26
599623383231468672,26
599623383239154944,31
599623383246841216,31
599623383254527488,26
599623383262213760,29
599623383269900032,33
599623383277586304,31
599623383285272704,26
599623383292958976,29
599623383300645248,33
599623383308331520,31
599623383316017792,31
599623383323704064,36
599623383331390336,36
599623383339076608,31
599623383346762880,29
599623383354449152,33
599623383362135552,33
599623383369821824,31
599623383377508096,33
599623383385194368,36
599623383392880640,33
599623383400566912,33
599623383408253184,36
599623383415939456,36
599623383423625728,33
599623383431312128,33
599623383438998400,33
599623383446684672,31
599623383454370944,36
599623383462057216,38
599623383469743488,31
599623383477429760,33
599623383485116032,36
599623383492802304,36
599623383500488704,36
599623383508174976,36
599623383515861237,36
599623383523547136,38
599623383531233024,36
599623383538918912,33
599623383546604800,33
599623383554290560,36
599623383561976448,33
599623383569662336,29
599623383577348224,36
599623383585034112,50
599623383592720000,58
599623383600405760,58
599623383608091648,53
599623383615777536,50
599623383623463424,38
599623383631149312,21
599623383638835200,26
599623383646520960,36
599623383654206848,33
599623383661892736,31
599623383669578624,33
599623383677264512,33
599623383684950400,36
599623383692636288,21
599623383700322048,-41
599623383708007936,-118
599623383715693824,-33
599623383723379712,297
599623383731065600,592
599623383738751488,451
599623383746437248,-7
599623383754123136,-200
599623383761809024,-72
599623383769494912,2
599623383777180800,12
599623383784866688,50
599623383792552448,41
599623383800238336,21
599623383807924224,38
599623383815610112,48
599623383823296000,38
599623383830981888,43
599623383838667776,48
599623383846353536,48
599623383854039424,53
599623383861725312,60
599623383869411200,58
599623383877097088,58
599623383884782976,62
599623383892468736,67
599623383900154624,70
599623383907840512,72
599623383915526400,77
599623383923212288,84
599623383930898176,87
599623383938583936,91
599623383946269824,99
599623383953955712,101
599623383961641600,101
599623383969327488,108
599623383977013376,113
599623383984699136,111
599623383992385024,106
599623384000070912,99
599623384007756800,84
599623384015442688,62
599623384023128576,36
599623384030814464,12
599623384038500224,-2
599623384046186112,-12
599623384053872000,-19
599623384061557888,-19
599623384069243776,-19
599623384076929580,-16
599623384084615808,-16
599623384092302080,-12
599623384099988352,-9
599623384107674624,-9
599623384115360896,-9
599623384123047296,-9
599623384130733568,-7
599623384138419840,-7
599623384146106112,-2
599623384153792384,0
599623384161478656,0
599623384169164928,4
599623384176851200,9
599623384184537472,9
599623384192223872,12
599623384199910144,14
599623384207596416,16
599623384215282688,19
599623384222968960,19
599623384230655232,21
599623384238341504,21
599623384246027776,24
599623384253714048,24
599623384261400320,21
599623384269086720,21
599623384276772992,21
599623384284459264,21
599623384292145536,21
599623384299831808,21
599623384307518080,21
599623384315204352,24
599623384322890624,24
599623384330576896,24
599623384338263296,24
599623384345949568,26
599623384353635840,24
599623384361322112,24
599623384369008384,26
599623384376694656,24
599623384384380928,24
599623384392067200,26
599623384399753472,29
599623384407439872,29
599623384415126144,26
599623384422812416,24
599623384430498688,26
599623384438184960,29
599623384445871232,31
599623384453557504,29
599623384461243776,26
599623384468930048,29
599623384476616448,31
599623384484302720,29
599623384491988992,29
599623384499675264,31
599623384507361536,33
599623384515047808,31
599623384522734080,26
599623384530420352,29
599623384538106624,33
599623384545792896,36
599623384553479296,33
599623384561165568,31
599623384568851840,31
599623384576538112,31
599623384584224384,33
599623384591910656,36
599623384599596928,33
599623384607283200,31
599623384614969472,33
599623384622655872,36
599623384630342144,33
599623384638028445,33
599623384645714688,31
599623384653400960,26
599623384661087232,31
599623384668773504,48
599623384676459776,60
599623384684146176,62
599623384691832448,58
599623384699518720,50
599623384707204992,33
599623384714891264,21
599623384722577536,31
599623384730263808,38
599623384737950080,33
599623384745636352,31
599623384753322752,33
599623384761009024,36
599623384768695296,36
599623384776381568,12
599623384784067840,-74
599623384791754112,-132
599623384799440384,38
599623384807126656,439
599623384814812928,681
599623384822499200,398
599623384830185600,-82
599623384837871872,-188
599623384845558144,-43
599623384853244416,2
599623384860930688,19
599623384868616960,45
599623384876303232,26
599623384883989504,16
599623384891675776,36
599623384899362176,36
599623384907048448,31
599623384914734720,41
599623384922420992,45
599623384930107264,43
599623384937793536,45
599623384945479808,50
599623384953166080,53
599623384960852352,53
599623384968538752,55
599623384976225024,60
599623384983911296,65
599623384991597568,70
599623384999283840,72
599623385006970112,74
599623385014656384,84
599623385022342656,87
599623385030028928,89
599623385037715200,96
599623385045401600,101
599623385053087872,106
599623385060774144,108
599623385068460416,106
599623385076146688,101
599623385083832960,94
599623385091519232,79
599623385099205504,55
599623385106891776,29
599623385114578176,9
599623385122264448,-4
599623385129950720,-14
599623385137636992,-19
599623385145323264,-21
599623385153009536,-21
599623385160695808,-21
599623385168382080,-19
599623385176068352,-14
599623385183754752,-14
599623385191441024,-14
599623385199127306,-12
599623385206813568,-9
599623385214499840,-7
599623385222186112,-4
599623385229872384,-2
599623385237558656,0
599623385245245056,2
599623385252931328,4
599623385260617600,7
599623385268303872,9
599623385275990144,12
599623385283676416,16
599623385291362688,16
599623385299048960,16
599623385306735232,21
599623385314421632,24
599623385322107904,21
599623385329794176,19
599623385337480448,19
599623385345166720,21
599623385352852992,21
599623385360539264,21
599623385368225536,19
599623385375911808,21
599623385383598080,21
599623385391284480,19
599623385398970752,19
599623385406657024,21
599623385414343296,21
599623385422029568,21
599623385429715840,21
599623385437402112,24
599623385445088384,24
599623385452774656,21
599623385460461056,24
599623385468147328,24
599623385475833600,24
599623385483519872,26
599623385491206144,24
599623385498892416,24
599623385506578688,24
599623385514264960,26
599623385521951232,29
599623385529637632,29
599623385537323904,26
599623385545010176,24
599623385552696448,26
599623385560382720,29
599623385568068992,29
599623385575755264,26
599623385583441536,29
599623385591127808,31
599623385598814080,29
599623385606500480,26
599623385614186752,29
599623385621873024,31
599623385629559296,31
599623385637245568,29
599623385644931840,29
599623385652618112,31
599623385660304384,31
599623385667990656,31
599623385675677056,33
599623385683363328,31
599623385691049600,31
599623385698735872,31
599623385706422144,31
599623385714108416,31
599623385721794688,29
599623385729480960,24
599623385737167232,16
599623385744853632,19
599623385752539904,36
599623385760226167,58
599623385767912320,60
599623385775598464,53
599623385783284608,48
599623385790970752,36
599623385798656896,24
599623385806343040,29
599623385814029184,36
599623385821715328,33
599623385829401472,31
599623385837087616,31
599623385844773760,31
599623385852459904,31
599623385860146048,24
599623385867832192,-33
599623385875518336,-132
599623385883204480,-99
599623385890890624,232
599623385898576768,647
599623385906262912,642
599623385913949056,161
599623385921635200,-181
599623385929321344,-103
599623385937007488,9
599623385944693632,7
599623385952379776,14
599623385960065920,21
599623385967752064,12
599623385975438336,19
599623385983124480,26
599623385990810624,24
599623385998496768,26
599623386006182912,33
599623386013869056,36
599623386021555200,36
599623386029241344,38
599623386036927488,43
599623386044613632,45
599623386052299776,45
599623386059985920,48
599623386067672064,53
599623386075358208,55
599623386083044352,58
599623386090730496,65
599623386098416640,67
599623386106102784,70
599623386113788928,77
599623386121475072,82
599623386129161216,87
599623386136847360,91
599623386144533504,94
599623386152219648,91
599623386159905792,89
599623386167591936,84
599623386175278080,79
599623386182964224,62
599623386190650368,41
599623386198336512,19
599623386206022656,2
599623386213708800,-7
599623386221394944,-16
599623386229081088,-19
599623386236767232,-21
599623386244453376,-21
599623386252139520,-16
599623386259825664,-16
599623386267511808,-14
599623386275197952,-12
599623386282884096,-9
599623386290570240,-7
599623386298256384,-4
599623386305942528,-4
599623386313628672,-4
599623386321314858,0
599623386329000832,4
599623386336686848,4
599623386344372864,4
599623386352058880,7
599623386359744896,9
599623386367430912,12
599623386375116928,14
599623386382802944,14
599623386390488832,19
599623386398174848,21
599623386405860864,19
599623386413546880,19
599623386421232896,21
599623386428918912,21
599623386436604928,21
599623386444290944,21
599623386451976960,21
599623386459662976,21
599623386467348992,21
599623386475035008,21
599623386482721024,24
599623386490407040,24
599623386498092928,21
599623386505778944,21
599623386513464960,24
599623386521150976,26
599623386528836992,24
599623386536523008,24
599623386544209024,26
599623386551895040,26
599623386559581056,26
599623386567267072,26
599623386574953088,26
599623386582639104,26
599623386590325120,29
599623386598011136,29
599623386605697024,26
599623386613383040,26
599623386621069056,29
599623386628755072,29
599623386636441088,29
599623386644127104,29
599623386651813120,29
599623386659499136,29
599623386667185152,29
599623386674871168,29
599623386682557184,29
599623386690243200,29
599623386697929216,31
599623386705615232,29
599623386713301120,29
599623386720987136,31
599623386728673152,31
599623386736359168,29
599623386744045184,31
599623386751731200,31
599623386759417216,31
599623386767103232,29
599623386774789248,29
599623386782475264,31
599623386790161280,31
599623386797847296,29
599623386805533312,29
599623386813219328,26
599623386820905344,16
599623386828591232,14
599623386836277248,31
599623386843963264,53
599623386851649280,60
599623386859335296,58
599623386867021312,50
599623386874707328,36
599623386882393371,24
599623386890079616,29
599623386897765888,33
599623386905452160,31
599623386913138432,29
599623386920824704,31
599623386928511104,31
599623386936197376,33
599623386943883648,19
599623386951569920,-45
599623386959256192,-145
599623386966942464,-79
599623386974628736,287
599623386982315008,713
599623386990001280,674
599623386997687680,145
599623387005373952,-207
599623387013060224,-106
599623387020746496,16
599623387028432768,9
599623387036119040,14
599623387043805312,19
599623387051491584,12
599623387059177856,16
599623387066864128,24
599623387074550528,24
599623387082236800,26
599623387089923072,33
599623387097609344,36
599623387105295616,38
599623387112981888,43
599623387120668160,45
599623387128354432,45
599623387136040704,50
599623387143727104,53
599623387151413376,55
599623387159099648,60
599623387166785920,62
599623387174472192,67
599623387182158464,72
599623387189844736,77
599623387197531008,82
599623387205217280,89
599623387212903680,91
599623387220589952,96
599623387228276224,99
599623387235962496,101
599623387243648768,99
599623387251335040,91
599623387259021312,82
599623387266707584,65
599623387274393856,41
599623387282080128,16
599623387289766528,-2
599623387297452800,-12
599623387305139072,-19
599623387312825344,-21
599623387320511616,-21
599623387328197888,-24
599623387335884160,-24
599623387343570432,-19
599623387351256704,-14
599623387358943104,-14
599623387366629376,-12
599623387374315648,-9
599623387382001920,-4
599623387389688192,-4
599623387397374464,-4
599623387405060736,0
599623387412747008,2
599623387420433280,4
599623387428119680,7
599623387435805952,9
599623387443492232,9
599623387451178496,12
599623387458864768,14
599623387466551040,16
599623387474237312,19
599623387481923584,19
599623387489609984,19
599623387497296256,19
599623387504982528,21
599623387512668800,19
599623387520355072,19
599623387528041344,21
599623387535727616,21
599623387543413888,19
599623387551100160,21
599623387558786560,21
599623387566472832,21
599623387574159104,21
599623387581845376,21
599623387589531648,24
599623387597217920,24
599623387604904192,24
599623387612590464,24
599623387620276736,24
599623387627963008,24
599623387635649408,24
599623387643335680,24
599623387651021952,26
599623387658708224,26
599623387666394496,24
599623387674080768,24
599623387681767040,24
599623387689453312,26
599623387697139584,26
599623387704825984,26
599623387712512256,26
599623387720198528,26
599623387727884800,26
599623387735571072,26
599623387743257344,29
599623387750943616,26
599623387758629888,29
599623387766316160,29
599623387774002560,29
599623387781688832,29
599623387789375104,29
599623387797061376,29
599623387804747648,29
599623387812433920,31
599623387820120192,31
599623387827806464,31
599623387835492736,29
599623387843179136,31
599623387850865408,31
599623387858551680,33
599623387866237952,29
599623387873924224,29
599623387881610496,24
599623387889296768,14
599623387896983040,16
599623387904669312,38
599623387912355584,58
599623387920041984,62
599623387927728256,60
599623387935414528,50
599623387943100800,31
599623387950787072,21
599623387958473344,29
599623387966159616,36
599623387973845888,31
599623387981532160,29
599623387989218560,31
599623387996904832,33
599623388004591097,33
599623388012277376,19
599623388019963648,-53
599623388027649920,-149
599623388035336192,-55
599623388043022464,345
599623388050708864,761
599623388058395136,667
599623388066081408,89
599623388073767680,-244
599623388081453952,-113
599623388089140224,14
599623388096826496,12
599623388104512768,19
599623388112199040,14
599623388119885440,9
599623388127571712,19
599623388135257984,26
599623388142944256,26
599623388150630528,31
599623388158316800,33
599623388166003072,36
599623388173689344,38
599623388181375616,43
599623388189061888,48
599623388196748288,50
599623388204434560,53
599623388212120832,58
599623388219807104,60
599623388227493376,65
599623388235179648,70
599623388242865920,74
599623388250552192,77
599623388258238464,84
599623388265924864,91
599623388273611136,96
599623388281297408,103
599623388288983680,108
599623388296669952,108
599623388304356224,106
599623388312042496,103
599623388319728768,99
599623388327415040,84
599623388335101440,62
599623388342787712,33
599623388350473984,7
599623388358160256,-9
599623388365846528,-19
599623388373532800,-26
599623388381219072,-29
599623388388905344,-29
599623388396591616,-26
599623388404277888,-26
599623388411964288,-24
599623388419650560,-19
599623388427336832,-19
599623388435023104,-16
599623388442709376,-12
599623388450395648,-12
599623388458081920,-9
599623388465768192,-4
599623388473454464,-2
599623388481140864,-2
599623388488827136,2
599623388496513408,4
599623388504199680,7
599623388511885952,7
599623388519572224,12
599623388527258496,12
599623388534944768,14
599623388542631040,14
599623388550317440,14
599623388558003712,16
599623388565689958,16
599623388573376000,16
599623388581062016,16
599623388588748160,16
599623388596434176,16
599623388604120320,16
599623388611806336,16
599623388619492480,16
599623388627178496,16
599623388634864640,19
599623388642550656,16
599623388650236800,19
599623388657922816,19
599623388665608960,19
599623388673294976,19
599623388680981120,19
599623388688667136,21
599623388696353280,21
599623388704039296,21
599623388711725440,21
599623388719411456,21
599623388727097472,21
599623388734783616,24
599623388742469632,21
599623388750155776,21
599623388757841792,24
599623388765527936,26
599623388773213952,24
599623388780900096,24
599623388788586112,24
599623388796272256,24
599623388803958272,26
599623388811644416,26
599623388819330432,26
599623388827016576,26
599623388834702592,26
599623388842388736,26
599623388850074752,26
599623388857760896,26
599623388865446912,26
599623388873133056,29
599623388880819072,29
599623388888505088,26
599623388896191232,26
599623388903877248,26
599623388911563392,24
599623388919249408,21
599623388926935552,12
599623388934621568,16
599623388942307712,38
599623388949993728,58
599623388957679872,62
599623388965365888,58
599623388973052032,43
599623388980738048,24
599623388988424192,21
599623388996110208,29
599623389003796352,31
599623389011482368,29
599623389019168512,31
599623389026854528,31
599623389034540544,29
599623389042226688,29
599623389049912704,4
599623389057598848,-89
599623389065284864,-152
599623389072971008,50
599623389080657024,509
599623389088343168,804
599623389096029184,488
599623389103715328,-118
599623389111401344,-273
599623389119087488,-77
599623389126773562,9
599623389134459520,21
599623389142145536,31
599623389149831680,14
599623389157517696,14
599623389165203840,29
599623389172889856,26
599623389180576000,26
599623389188262016,33
599623389195948160,38
599623389203634176,38
599623389211320320,43
599623389219006336,48
599623389226692480,50
599623389234378496,53
599623389242064640,55
599623389249750656,60
599623389257436800,65
599623389265122816,70
599623389272808960,74
599623389280494976,79
599623389288180992,84
599623389295867136,91
599623389303553152,96
599623389311239296,103
599623389318925312,108
599623389326611456,111
599623389334297472,111
599623389341983616,111
599623389349669632,108
599623389357355776,96
599623389365041792,79
599623389372727936,53
599623389380413952,21
599623389388100096,-2
599623389395786112,-16
599623389403472256,-29
599623389411158272,-36
599623389418844416,-36
599623389426530432,-33
599623389434216448,-31
599623389441902592,-29
599623389449588608,-29
599623389457274752,-26
599623389464960768,-21
599623389472646912,-19
599623389480332928,-16
599623389488019072,-12
599623389495705088,-9
599623389503391232,-7
599623389511077248,-4
599623389518763392,-2
599623389526449408,0
599623389534135552,2
599623389541821568,4
599623389549507712,7
599623389557193728,7
599623389564879872,9
599623389572565888,12
599623389580252032,12
599623389587938048,12
599623389595624064,12
599623389603310208,12
599623389610996224,12
599623389618682368,12
599623389626368384,12
599623389634054528,12
599623389641740544,12
599623389649426688,14
599623389657112704,12
599623389664798848,14
599623389672484864,14
599623389680171008,14
599623389687857162,14
599623389695543424,16
599623389703229696,14
599623389710915968,16
599623389718602240,16
599623389726288512,16
599623389733974912,16
599623389741661184,16
599623389749347456,19
599623389757033728,19
599623389764720000,19
599623389772406272,19
599623389780092544,21
599623389787778816,21
599623389795465088,21
599623389803151488,21
599623389810837760,21
599623389818524032,21
599623389826210304,24
599623389833896576,24
599623389841582848,24
599623389849269120,24
599623389856955392,24
599623389864641664,24
599623389872327936,24
599623389880014336,21
599623389887700608,19
599623389895386880,12
599623389903073152,9
599623389910759424,26
599623389918445696,45
599623389926131968,58
599623389933818240,60
599623389941504512,48
599623389949190912,24
599623389956877184,16
599623389964563456,26
599623389972249728,29
599623389979936000,26
599623389987622272,26
599623389995308544,29
599623390002994816,29
599623390010681088,26
599623390018367488,16
599623390026053760,-53
599623390033740032,-147
599623390041426304,-55
599623390049112576,343
599623390056798848,756
599623390064485120,652
599623390072171392,48
599623390079857664,-294
599623390087543936,-149
599623390095230336,-7
599623390102916608,19
599623390110602880,41
599623390118289152,24
599623390125975424,9
599623390133661696,26
599623390141347968,33
599623390149034240,29
599623390156720512,36
599623390164406912,41
599623390172093184,41
599623390179779456,48
599623390187465728,53
599623390195152000,53
599623390202838272,55
599623390210524544,60
599623390218210816,65
599623390225897088,70
599623390233583488,72
599623390241269760,74
599623390248956023,79
599623390256641920,89
599623390264327808,96
599623390272013696,101
599623390279699584,106
599623390287385344,113
599623390295071232,116
599623390302757120,116
599623390310443008,116
599623390318128896,113
599623390325814784,103
599623390333500544,89
599623390341186432,62
599623390348872320,31
599623390356558208,7
599623390364244096,-12
599623390371929984,-26
599623390379615744,-33
599623390387301632,-33
599623390394987520,-31
599623390402673408,-31
599623390410359296,-29
599623390418045184,-26
599623390425731072,-21
599623390433416832,-19
599623390441102720,-14
599623390448788608,-12
599623390456474496,-9
599623390464160384,-7
599623390471846272,-4
599623390479532032,0
599623390487217920,2
599623390494903808,4
599623390502589696,4
599623390510275584,7
599623390517961472,12
599623390525647232,14
599623390533333120,14
599623390541019008,14
599623390548704896,16
599623390556390784,14
599623390564076672,16
599623390571762560,19
599623390579448320,19
599623390587134208,16
599623390594820096,16
599623390602505984,16
599623390610191872,16
599623390617877760,19
599623390625563520,21
599623390633249408,19
599623390640935296,21
599623390648621184,21
599623390656307072,19
599623390663992960,21
599623390671678720,26
599623390679364608,24
599623390687050496,19
599623390694736384,21
599623390702422272,26
599623390710108160,26
599623390717793920,26
599623390725479808,26
599623390733165696,24
599623390740851584,26
599623390748537472,29
599623390756223360,26
599623390763909248,26
599623390771595008,26
599623390779280896,26
599623390786966784,26
599623390794652672,24
599623390802338560,16
599623390810024366,19
599623390817710592,33
599623390825396864,53
599623390833083136,62
599623390840769408,60
599623390848455680,48
599623390856142080,26
599623390863828352,19
599623390871514624,29
599623390879200896,31
599623390886887168,29
599623390894573440,31
599623390902259712,33
599623390909945984,31
599623390917632256,29
599623390925318656,21
599623390933004928,-33
599623390940691200,-128
599623390948377472,-67
599623390956063744,299
599623390963750016,715
599623390971436288,618
599623390979122560,-9
599623390986808832,-369
599623390994495104,-183
599623391002181504,-33
599623391009867776,-12
599623391017554048,67
599623391025240320,70
599623391032926592,21
599623391040612864,41
599623391048299136,60
599623391055985408,45
599623391063671680,50
599623391071358080,60
599623391079044352,60
599623391086730624,60
599623391094416896,67
599623391102103168,72
599623391109789440,74
599623391117475712,77
599623391125161984,82
599623391132848256,87
599623391140534656,91
599623391148220928,96
599623391155907200,106
599623391163593472,106
599623391171279744,111
599623391178966016,123
599623391186652288,132
599623391194338560,135
599623391202024832,140
599623391209711232,142
599623391217397504,145
599623391225083776,142
599623391232770048,132
599623391240456320,111
599623391248142592,77
599623391255828864,36
599623391263515136,0
599623391271201408,-19
599623391278887680,-31
599623391286574080,-41
599623391294260352,-45
599623391301946624,-45
599623391309632896,-43
599623391317319168,-41
599623391325005440,-36
599623391332691712,-33
599623391340377984,-31
599623391348064256,-29
599623391355750656,-21
599623391363436928,-16
599623391371123231,-16
599623391378809472,-12
599623391386495744,-9
599623391394182016,-9
599623391401868288,-4
599623391409554560,0
599623391417240960,2
599623391424927232,2
599623391432613504,2
599623391440299776,4
599623391447986048,4
599623391455672320,4
599623391463358592,4
599623391471044864,7
599623391478731136,7
599623391486417536,7
599623391494103808,7
599623391501790080,7
599623391509476352,7
599623391517162624,12
599623391524848896,12
599623391532535168,9
599623391540221440,9
599623391547907712,9
599623391555593984,9
599623391563280384,9
599623391570966656,9
599623391578652928,7
599623391586339200,0
599623391594025472,4
599623391601711744,24
599623391609398016,38
599623391617084288,43
599623391624770560,45
599623391632456960,33
599623391640143232,14
599623391647829504,12
599623391655515776,21
599623391663202048,21
599623391670888320,16
599623391678574592,14
599623391686260864,19
599623391693947136,24
599623391701633536,26
599623391709319808,12
599623391717006080,-43
599623391724692352,-132
599623391732378624,-77
599623391740064896,277
599623391747751168,664
599623391755437440,541
599623391763123712,-60
599623391770809984,-364
599623391778496384,-178
599623391786182656,-48
599623391793868928,-19
599623391801555200,74
599623391809241472,77
599623391816927744,19
599623391824614016,41
599623391832300288,62
599623391839986560,45
599623391847672960,53
599623391855359232,62
599623391863045504,60
599623391870731776,60
599623391878418048,67
599623391886104320,72
599623391893790592,74
599623391901476864,82
599623391909163136,87
599623391916849536,89
599623391924535808,94
599623391932222092,101
599623391939908352,106
599623391947594624,116
599623391955280896,125
599623391962967168,132
599623391970653440,137
599623391978339840,149
599623391986026112,154
599623391993712384,154
599623392001398656,152
599623392009084928,152
599623392016771200,137
599623392024457472,103
599623392032143744,60
599623392039830016,16
599623392047516416,-12
599623392055202688,-29
599623392062888960,-43
599623392070575232,-53
599623392078261504,-48
599623392085947776,-45
599623392093634048,-45
599623392101320320,-43
599623392109006592,-38
599623392116692864,-36
599623392124379264,-29
599623392132065536,-24
599623392139751808,-26
599623392147438080,-21
599623392155124352,-16
599623392162810624,-16
599623392170496896,-12
599623392178183168,-4
599623392185869440,-4
599623392193555840,-2
599623392201242112,0
599623392208928384,0
599623392216614656,0
599623392224300928,4
599623392231987200,7
599623392239673472,2
599623392247359744,4
599623392255046016,9
599623392262732416,4
599623392270418688,4
599623392278104960,9
599623392285791232,7
599623392293477504,4
599623392301163776,4
599623392308850048,2
599623392316536320,-2
599623392324222592,7
599623392331908864,29
599623392339595264,36
599623392347281536,38
599623392354967808,36
599623392362654080,19
599623392370340352,7
599623392378026624,9
599623392385712896,16
599623392393399168,14
599623392401085440,9
599623392408771840,14
599623392416458112,19
599623392424144384,19
599623392431830656,16
599623392439516928,4
599623392447203200,-70
599623392454889472,-147
599623392462575744,-14
599623392470262016,381
599623392477948416,662
599623392485634688,379
599623392493320953,-188
599623392501007232,-319
599623392508693504,-113
599623392516379776,-43
599623392524066048,2
599623392531752320,79
599623392539438720,50
599623392547124992,16
599623392554811264,45
599623392562497536,50
599623392570183808,38
599623392577870080,48
599623392585556352,55
599623392593242624,53
599623392600928896,58
599623392608615296,60
599623392616301568,60
599623392623987840,70
599623392631674112,77
599623392639360384,77
599623392647046656,82
599623392654732928,91
599623392662419200,96
599623392670105472,99
599623392677791744,108
599623392685478144,118
599623392693164416,125
599623392700850688,132
599623392708536960,140
599623392716223232,145
599623392723909504,142
599623392731595776,140
599623392739282048,132
599623392746968320,108
599623392754654720,72
599623392762340992,31
599623392770027264,0
599623392777713536,-26
599623392785399808,-41
599623392793086080,-45
599623392800772352,-45
599623392808458624,-45
599623392816144896,-43
599623392823831296,-41
599623392831517568,-38
599623392839203840,-33
599623392846890112,-31
599623392854576384,-26
599623392862262656,-24
599623392869948928,-19
599623392877635200,-19
599623392885321472,-16
599623392893007744,-12
599623392900694144,-7
599623392908380416,-7
599623392916066688,-4
599623392923752960,-4
599623392931439232,0
599623392939125504,4
599623392946811776,4
599623392954498048,0
599623392962184320,4
599623392969870720,12
599623392977556992,7
599623392985243264,2
599623392992929536,7
599623393000615808,9
599623393008302080,4
599623393015988352,4
599623393023674624,0
599623393031360896,-2
599623393039047296,14
599623393046733568,33
599623393054419814,36
599623393062106112,36
599623393069792384,31
599623393077478528,14
599623393085164800,7
599623393092850944,9
599623393100537216,12
599623393108223360,12
599623393115909632,12
599623393123595904,12
599623393131282048,16
599623393138968320,19
599623393146654464,14
599623393154340736,-14
599623393162026880,-99
599623393169713152,-140
599623393177399296,74
599623393185085568,483
599623393192771840,618
599623393200457984,205
599623393208144256,-258
599623393215830400,-239
599623393223516672,-70
599623393231202816,-36
599623393238889088,33
599623393246575360,74
599623393254261504,24
599623393261947776,16
599623393269633920,50
599623393277320192,45
599623393285006336,36
599623393292692608,45
599623393300378752,50
599623393308065024,50
599623393315751296,55
599623393323437440,62
599623393331123712,62
599623393338809856,62
599623393346496128,70
599623393354182272,72
599623393361868544,79
599623393369554816,87
599623393377240960,91
599623393384927232,96
599623393392613376,103
599623393400299648,113
599623393407985792,120
599623393415672064,125
599623393423358208,130
599623393431044480,135
599623393438730752,135
599623393446416896,128
599623393454103168,113
599623393461789312,89
599623393469475584,53
599623393477161728,16
599623393484848000,-9
599623393492534272,-26
599623393500220416,-36
599623393507906688,-38
599623393515592832,-38
599623393523279104,-38
599623393530965248,-36
599623393538651520,-31
599623393546337792,-26
599623393554023936,-26
599623393561710208,-24
599623393569396352,-19
599623393577082624,-14
599623393584768768,-14
599623393592455040,-12
599623393600141184,-7
599623393607827456,-4
599623393615513592,-4
599623393623199488,-4
599623393630885376,0
599623393638571392,7
599623393646257280,4
599623393653943296,4
599623393661629184,9
599623393669315072,9
599623393677001088,7
599623393684686976,9
599623393692372864,9
599623393700058880,9
599623393707744768,7
599623393715430784,9
599623393723116672,9
599623393730802560,2
599623393738488576,-2
599623393746174464,12
599623393753860480,31
599623393761546368,36
599623393769232256,36
599623393776918272,41
599623393784604160,26
599623393792290048,4
599623393799976064,7
599623393807661952,21
599623393815347968,19
599623393823033856,9
599623393830719744,14
599623393838405760,19
599623393846091648,19
599623393853777664,21
599623393861463552,14
599623393869149440,-38
599623393876835456,-132
599623393884521344,-89
599623393892207232,229
599623393899893248,587
599623393907579136,509
599623393915265152,4
599623393922951040,-273
599623393930636928,-137
599623393938322944,-26
599623393946008832,-2
599623393953694848,55
599623393961380736,50
599623393969066624,14
599623393976752640,31
599623393984438528,45
599623393992124544,38
599623393999810432,43
599623394007496320,50
599623394015182336,48
599623394022868224,53
599623394030554112,58
599623394038240128,55
599623394045926016,58
599623394053612032,65
599623394061297920,70
599623394068983808,72
599623394076669824,77
599623394084355712,79
599623394092041728,87
599623394099727616,94
599623394107413504,101
599623394115099520,108
599623394122785408,116
599623394130471296,120
599623394138157312,123
599623394145843200,123
599623394153529216,118
599623394161215104,108
599623394168900992,94
599623394176587018,60
599623394184273280,24
599623394191959552,0
599623394199645824,-14
599623394207332096,-31
599623394215018368,-38
599623394222704768,-31
599623394230391040,-36
599623394238077312,-38
599623394245763584,-29
599623394253449856,-24
599623394261136128,-26
599623394268822400,-21
599623394276508672,-16
599623394284194944,-19
599623394291881344,-12
599623394299567616,-9
599623394307253888,-14
599623394314940160,-9
599623394322626432,0
599623394330312704,0
599623394337998976,-2
599623394345685248,2
599623394353371520,4
599623394361057792,7
599623394368744192,4
599623394376430464,7
599623394384116736,12
599623394391803008,9
599623394399489280,9
599623394407175552,12
599623394414861824,14
599623394422548096,14
599623394430234368,12
599623394437920768,12
599623394445607040,14
599623394453293312,16
599623394460979584,14
599623394468665856,14
599623394476352128,19
599623394484038400,19
599623394491724672,16
599623394499410944,16
599623394507097344,19
599623394514783616,16
599623394522469888,12
599623394530156160,12
599623394537842432,9
599623394545528704,16
599623394553214976,38
599623394560901248,45
599623394568587520,48
599623394576273920,48
599623394583960192,29
599623394591646464,14
599623394599332736,26
599623394607019008,31
599623394614705280,16
599623394622391552,16
599623394630077824,26
599623394637764096,24
599623394645450368,19
599623394653136768,29
599623394660823040,24
599623394668509312,-33
599623394676195584,-120
599623394683881856,-74
599623394691568128,229
599623394699254400,570
599623394706940672,500
599623394714626944,26
599623394722313344,-239
599623394729999616,-120
599623394737685883,-12
599623394745372160,12
599623394753058432,45
599623394760744704,38
599623394768430976,19
599623394776117248,33
599623394783803648,41
599623394791489920,33
599623394799176192,38
599623394806862464,43
599623394814548736,45
599623394822235008,48
599623394829921280,50
599623394837607552,55
599623394845293824,55
599623394852980224,53
599623394860666496,60
599623394868352768,67
599623394876039040,70
599623394883725312,74
599623394891411584,77
599623394899097856,82
599623394906784128,91
599623394914470400,96
599623394922156672,99
599623394929843072,103
599623394937529344,108
599623394945215616,108
599623394952901888,108
599623394960588160,106
599623394968274432,89
599623394975960704,65
599623394983646976,36
599623394991333248,7
599623394999019648,-12
599623395006705920,-14
599623395014392192,-19
599623395022078464,-29
599623395029764736,-33
599623395037451008,-24
599623395045137280,-19
599623395052823552,-19
599623395060509824,-21
599623395068196224,-14
599623395075882496,-9
599623395083568768,-12
599623395091255040,-12
599623395098941312,-7
599623395106627584,-2
599623395114313856,-2
599623395122000128,-2
599623395129686400,2
599623395137372672,4
599623395145059072,4
599623395152745344,9
599623395160431616,4
599623395168117888,7
599623395175804160,12
599623395183490432,9
599623395191176704,9
599623395198862976,16
599623395206549248,19
599623395214235648,14
599623395221921920,12
599623395229608192,14
599623395237294464,16
599623395244980736,19
599623395252667008,19
599623395260353280,12
599623395268039552,14
599623395275725824,24
599623395283412224,19
599623395291098496,16
599623395298784744,21
599623395306471040,19
599623395314157312,19
599623395321843584,21
599623395329529856,21
599623395337216128,21
599623395344902528,21
599623395352588800,21
599623395360275072,19
599623395367961344,21
599623395375647616,24
599623395383333888,24
599623395391020160,24
599623395398706432,24
599623395406392704,24
599623395414079104,26
599623395421765376,24
599623395429451648,21
599623395437137920,26
599623395444824192,26
599623395452510464,26
599623395460196736,29
599623395467883008,26
599623395475569280,21
599623395483255552,26
599623395490941952,29
599623395498628224,24
599623395506314496,24
599623395514000768,31
599623395521687040,31
599623395529373312,24
599623395537059584,21
599623395544745856,26
599623395552432128,26
599623395560118528,26
599623395567804800,33
599623395575491072,31
599623395583177344,26
599623395590863616,29
599623395598549888,26
599623395606236160,29
599623395613922432,29
599623395621608704,26
599623395629295104,29
599623395636981376,31
599623395644667648,26
599623395652353920,26
599623395660040192,31
599623395667726464,26
599623395675412736,16
599623395683099008,16
599623395690785280,26
599623395698471552,41
599623395706157952,50
599623395713844224,55
599623395721530496,55
599623395729216768,41
599623395736903040,24
599623395744589312,24
599623395752275584,31
599623395759961856,31
599623395767648128,29
599623395775334528,31
599623395783020800,31
599623395790707072,26
599623395798393344,26
599623395806079616,21
599623395813765888,-36
599623395821452160,-123
599623395829138432,-55
599623395836824704,270
599623395844511104,584
599623395852197376,468
599623395859883605,9
599623395867569920,-207
599623395875256192,-84
599623395882942464,4
599623395890628736,14
599623395898315008,41
599623395906001408,33
599623395913687680,19
599623395921373952,33
599623395929060224,38
599623395936746496,33
599623395944432768,38
599623395952119040,45
599623395959805312,43
599623395967491584,41
599623395975177984,50
599623395982864256,55
599623395990550528,53
599623395998236800,53
599623396005923072,58
599623396013609344,60
599623396021295616,65
599623396028981888,70
599623396036668160,70
599623396044354432,72
599623396052040832,77
599623396059727104,79
599623396067413376,84
599623396075099648,91
599623396082785920,94
599623396090472192,91
599623396098158464,87
599623396105844736,89
599623396113531008,87
599623396121217408,72
599623396128903680,53
599623396136589952,33
599623396144276224,12
599623396151962496,-4
599623396159648768,-9
599623396167335040,-9
599623396175021312,-16
599623396182707584,-21
599623396190393984,-19
599623396198080256,-16
599623396205766528,-12
599623396213452800,-7
599623396221139072,-4
599623396228825344,-2
599623396236511616,-4
599623396244197888,-4
599623396251884160,0
599623396259570432,0
599623396267256832,0
599623396274943104,7
599623396282629376,9
599623396290315648,7
599623396298001920,4
599623396305688192,7
599623396313374464,12
599623396321060736,16
599623396328747008,14
599623396336433408,12
599623396344119680,14
599623396351805952,16
599623396359492224,21
599623396367178496,24
599623396374864768,16
599623396382551040,16
599623396390237312,19
599623396397923584,21
599623396405609984,24
599623396413296256,24
599623396420982466,21
599623396428668800,21
599623396436355072,21
599623396444041216,24
599623396451727488,24
599623396459413632,24
599623396467099904,24
599623396474786048,24
599623396482472320,24
599623396490158592,24
599623396497844736,24
599623396505531008,26
599623396513217152,26
599623396520903424,21
599623396528589568,19
599623396536275840,24
599623396543961984,29
599623396551648256,26
599623396559334528,26
599623396567020672,24
599623396574706944,21
599623396582393088,24
599623396590079360,31
599623396597765504,31
599623396605451776,26
599623396613138048,21
599623396620824192,21
599623396628510464,24
599623396636196608,26
599623396643882880,31
599623396651569024,33
599623396659255296,26
599623396666941440,19
599623396674627712,29
599623396682313984,31
599623396690000128,24
599623396697686400,26
599623396705372544,29
599623396713058816,24
599623396720744960,16
599623396728431232,14
599623396736117504,24
599623396743803648,38
599623396751489920,53
599623396759176064,55
599623396766862336,43
599623396774548480,38
599623396782234752,26
599623396789920896,16
599623396797607168,21
599623396805293440,29
599623396812979584,26
599623396820665856,26
599623396828352000,29
599623396836038272,24
599623396843724416,26
599623396851410688,21
599623396859096960,-33
599623396866783104,-113
599623396874469376,-58
599623396882155520,236
599623396889841792,534
599623396897527936,444
599623396905214208,19
599623396912900480,-200
599623396920586624,-84
599623396928272896,4
599623396935959040,9
599623396943645312,41
599623396951331456,45
599623396959017728,21
599623396966703872,24
599623396974390144,41
599623396982076244,43
599623396989762176,38
599623396997448064,36
599623397005134080,43
599623397012819968,48
599623397020505984,53
599623397028191872,53
599623397035877760,50
599623397043563776,50
599623397051249664,60
599623397058935552,70
599623397066621568,67
599623397074307456,67
599623397081993472,74
599623397089679360,74
599623397097365248,79
599623397105051264,91
599623397112737152,96
599623397120423168,99
599623397128109056,101
599623397135794944,101
599623397143480960,101
599623397151166848,101
599623397158852736,89
599623397166538752,70
599623397174224640,53
599623397181910656,24
599623397189596544,-2
599623397197282432,-4
599623397204968448,-9
599623397212654336,-24
599623397220340352,-26
599623397228026240,-19
599623397235712128,-14
599623397243398144,-14
599623397251084032,-16
599623397258769920,-12
599623397266455936,-9
599623397274141824,-14
599623397281827840,-7
599623397289513728,-4
599623397297199616,-9
599623397304885632,-4
599623397312571520,-2
599623397320257536,-2
599623397327943424,2
599623397335629312,4
599623397343315328,7
599623397351001216,9
599623397358687232,12
599623397366373120,7
599623397374059008,12
599623397381745024,16
599623397389430912,16
599623397397116800,14
599623397404802816,16
599623397412488704,21
599623397420174720,19
599623397427860608,19
599623397435546496,24
599623397443232512,16
599623397450918400,14
599623397458604416,16
599623397466290304,19
599623397473976192,24
599623397481662208,26
599623397489348096,21
599623397497033984,19
599623397504720000,21
599623397512405888,19
599623397520091904,19
599623397527777792,26
599623397535463680,26
599623397543149670,21
599623397550835968,24
599623397558522240,24
599623397566208512,19
599623397573894784,24
599623397581581056,29
599623397589267456,21
599623397596953728,24
599623397604640000,26
599623397612326272,21
599623397620012544,26
599623397627698816,29
599623397635385088,26
599623397643071360,26
599623397650757632,29
599623397658444032,26
599623397666130304,24
599623397673816576,26
599623397681502848,31
599623397689189120,31
599623397696875392,26
599623397704561664,26
599623397712247936,29
599623397719934208,26
599623397727620480,26
599623397735306880,29
599623397742993152,21
599623397750679424,16
599623397758365696,29
599623397766051968,50
599623397773738240,58
599623397781424512,48
599623397789110784,43
599623397796797056,36
599623397804483456,21
599623397812169728,16
599623397819856000,29
599623397827542272,31
599623397835228544,26
599623397842914816,29
599623397850601088,29
599623397858287360,29
599623397865973632,31
599623397873660032,14
599623397881346304,-48
599623397889032576,-116
599623397896718848,-19
599623397904405120,297
599623397912091392,534
599623397919777664,357
599623397927463936,-55
599623397935150208,-193
599623397942836608,-58
599623397950522880,7
599623397958209152,19
599623397965895424,48
599623397973581696,43
599623397981267968,26
599623397988954240,31
599623397996640512,43
599623398004326784,45
599623398012013056,38
599623398019699456,41
599623398027385728,50
599623398035072000,55
599623398042758272,53
599623398050444544,55
599623398058130816,60
599623398065817088,60
599623398073503360,62
599623398081189632,72
599623398088876032,72
599623398096562304,72
599623398104248535,79
599623398111934848,89
599623398119621120,91
599623398127307392,99
599623398134993664,103
599623398142679936,108
599623398150366336,108
599623398158052608,108
599623398165738880,111
599623398173425152,106
599623398181111424,94
599623398188797696,74
599623398196483968,48
599623398204170240,21
599623398211856512,2
599623398219542912,-12
599623398227229184,-24
599623398234915456,-24
599623398242601728,-19
599623398250288000,-21
599623398257974272,-19
599623398265660544,-14
599623398273346816,-14
599623398281033088,-12
599623398288719360,-9
599623398296405760,-14
599623398304092032,-12
599623398311778304,-2
599623398319464576,-2
599623398327150848,-2
599623398334837120,2
599623398342523392,2
599623398350209664,4
599623398357895936,9
599623398365582336,7
599623398373268608,9
599623398380954880,19
599623398388641152,19
599623398396327424,14
599623398404013696,16
599623398411699968,19
599623398419386240,21
599623398427072512,24
599623398434758912,19
599623398442445184,16
599623398450131456,24
599623398457817728,24
599623398465504000,16
599623398473190272,21
599623398480876544,26
599623398488562816,19
599623398496249088,19
599623398503935360,24
599623398511621760,26
599623398519308032,21
599623398526994304,21
599623398534680576,29
599623398542366848,29
599623398550053120,24
599623398557739392,24
599623398565425664,26
