599616331517053952,2332
599616331524746240,2600
599616331532438528,2760
599616331540130816,2765
599616331547823232,2871
599616331555515520,2982
599616331563207808,3016
599616331570900096,3074
599616331578592384,3154
599616331586284672,3197
599616331593977088,3224
599616331601669376,3265
599616331609361664,3301
599616331617053952,3325
599616331624746240,3354
599616331632438528,3391
599616331640130816,3417
599616331647823232,3441
599616331655515520,3470
599616331663207808,3499
599616331670900096,3531
599616331678592384,3548
599616331686284672,3562
599616331693977088,3586
599616331701669376,3608
599616331709361664,3618
599616331717053952,3632
599616331724746240,3647
599616331732438528,3656
599616331740130816,3656
599616331747823232,3664
599616331755515520,3676
599616331763207808,3688
599616331770900096,3693
599616331778592384,3690
599616331786284672,3676
599616331793977088,3668
599616331801669376,3668
599616331809361664,3666
599616331817053952,3664
599616331824746240,3656
599616331832438528,3644
599616331840130816,3639
599616331847823232,3637
599616331855515520,3627
599616331863207808,3613
599616331870900096,3598
599616331878592384,3594
599616331886284672,3584
599616331893977088,3562
599616331901669376,3555
599616331909361664,3550
599616331917053952,3528
599616331924746240,3504
599616331932438528,3494
599616331940130816,3482
599616331947823232,3468
599616331955515520,3449
599616331963207808,3429
599616331970900096,3415
599616331978592384,3393
599616331986284672,3369
599616331993977088,3349
599616332001669376,3328
599616332009361664,3289
599616332017053952,3260
599616332024746240,3255
599616332032438528,3270
599616332040130816,3265
599616332047823232,3238
599616332055515520,3217
599616332063207808,3185
599616332070900095,3139
599616332078585600,3113
599616332086271104,3108
599616332093956480,3086
599616332101641984,3050
599616332109327360,3026
599616332117012864,3013
599616332124698240,2989
599616332132383744,2953
599616332140069248,2849
599616332147754624,2709
599616332155440128,2774
599616332163125504,3217
599616332170811008,3743
599616332178496384,3693
599616332186181888,2943
599616332193867392,2392
599616332201552768,2501
599616332209238272,2704
599616332216923648,2692
599616332224609152,2639
599616332232294656,2615
599616332239980032,2603
599616332247665536,2583
599616332255350912,2564
599616332263036416,2549
599616332270721792,2540
599616332278407296,2525
599616332286092800,2491
599616332293778176,2462
599616332301463680,2450
599616332309149056,2433
599616332316834560,2409
599616332324519936,2395
599616332332205440,2375
599616332339890944,2356
599616332347576320,2339
599616332355261824,2322
599616332362947200,2308
599616332370632704,2288
599616332378318080,2264
599616332386003584,2247
599616332393689088,2230
599616332401374464,2206
599616332409059968,2184
599616332416745344,2165
599616332424430848,2136
599616332432116224,2102
599616332439801728,2068
599616332447487232,2030
599616332455172608,1994
599616332462858112,1962
599616332470543488,1933
599616332478228992,1911
599616332485914368,1890
599616332493599872,1868
599616332501285376,1851
599616332508970752,1836
599616332516656256,1815
599616332524341632,1795
599616332532027136,1786
599616332539712640,1774
599616332547398016,1754
599616332555083520,1735
599616332562768896,1720
599616332570454400,1708
599616332578139776,1689
599616332585825280,1670
599616332593510784,1658
599616332601196160,1641
599616332608881664,1616
599616332616567040,1597
599616332624252544,1585
599616332631937920,1571
599616332639622912,1551
599616332647307904,1534
599616332654993024,1515
599616332662678016,1498
599616332670363008,1481
599616332678048128,1467
599616332685733120,1455
599616332693418112,1438
599616332701103104,1413
599616332708788224,1394
599616332716473216,1384
599616332724158208,1370
599616332731843328,1353
599616332739528320,1339
599616332747213312,1324
599616332754898432,1312
599616332762583424,1297
599616332770268416,1285
599616332777953536,1276
599616332785638528,1254
599616332793323520,1227
599616332801008512,1210
599616332808693632,1196
599616332816378624,1177
599616332824063616,1164
599616332831748736,1179
599616332839433728,1189
599616332847118720,1177
599616332854803840,1160
599616332862488832,1138
599616332870173824,1111
599616332877858944,1094
599616332885543936,1082
599616332893228928,1077
599616332900914048,1068
599616332908599040,1053
599616332916284032,1041
599616332923969024,1029
599616332931654144,1012
599616332939339136,940
599616332947024128,807
599616332954709248,843
599616332962394240,1261
599616332970079232,1790
599616332977764352,1740
599616332985449344,976
599616332993134336,451
599616333000819456,638
599616333008504448,853
599616333016189440,865
599616333023874432,911
599616333031559552,903
599616333039244544,848
599616333046929536,858
599616333054614656,872
599616333062299648,850
599616333069984640,841
599616333077669760,843
599616333085354752,838
599616333093039744,829
599616333100724864,826
599616333108409856,821
599616333116094848,814
599616333123779840,812
599616333131464960,807
599616333139149952,804
599616333146834944,804
599616333154520064,804
599616333162205056,802
599616333169890048,800
599616333177575168,797
599616333185260160,792
599616333192945227,790
599616333200630784,787
599616333208316288,778
599616333216001664,768
599616333223687168,754
599616333231372544,727
599616333239058048,691
599616333246743424,650
599616333254428928,618
599616333262114432,596
599616333269799808,572
599616333277485312,560
599616333285170688,555
599616333292856192,541
599616333300541568,531
599616333308227072,536
599616333315912576,536
599616333323597952,526
599616333331283456,524
599616333338968832,524
599616333346654336,517
599616333354339840,514
599616333362025216,514
599616333369710720,514
599616333377396096,512
599616333385081600,505
599616333392766976,495
599616333400452480,493
599616333408137984,493
599616333415823360,485
599616333423508864,478
599616333431194240,476
599616333438879744,468
599616333446565120,461
599616333454250624,456
599616333461936128,454
599616333469621504,449
599616333477307008,442
599616333484992384,435
599616333492677888,435
599616333500363264,432
599616333508048768,425
599616333515734272,420
599616333523419648,410
599616333531105152,401
599616333538790528,389
599616333546476032,381
599616333554161408,396
599616333561846912,418
599616333569532416,418
599616333577217792,410
599616333584903296,406
599616333592588672,389
599616333600274176,372
599616333607959552,372
599616333615645056,377
599616333623330560,369
599616333631015936,362
599616333638701440,360
599616333646386816,360
599616333654072320,355
599616333661757824,338
599616333669443200,251
599616333677128704,137
599616333684814080,258
599616333692499584,732
599616333700184960,1160
599616333707870464,911
599616333715555968,154
599616333723241344,-118
599616333730926848,147
599616333738612224,273
599616333746297728,285
599616333753983052,340
599616333761668096,316
599616333769353088,285
599616333777038208,311
599616333784723200,316
599616333792408192,302
599616333800093312,302
599616333807778304,302
599616333815463296,299
599616333823148288,299
599616333830833408,304
599616333838518400,304
599616333846203392,304
599616333853888512,309
599616333861573504,314
599616333869258496,311
599616333876943616,316
599616333884628608,323
599616333892313600,323
599616333899998720,326
599616333907683712,333
599616333915368704,335
599616333923053696,333
599616333930738816,331
599616333938423808,326
599616333946108800,319
599616333953793920,304
599616333961478912,277
599616333969163904,241
599616333976849024,212
599616333984534016,195
599616333992219008,183
599616333999904128,174
599616334007589120,174
599616334015274112,174
599616334022959232,171
599616334030644224,171
599616334038329216,174
599616334046014208,174
599616334053699328,174
599616334061384320,176
599616334069069312,176
599616334076754432,176
599616334084439424,176
599616334092124416,176
599616334099809536,178
599616334107494528,178
599616334115179520,176
599616334122864640,176
599616334130549632,174
599616334138234624,171
599616334145919616,169
599616334153604736,171
599616334161289728,171
599616334168974720,166
599616334176659840,161
599616334184344832,161
599616334192029824,161
599616334199714944,159
599616334207399936,157
599616334215084928,157
599616334222770048,157
599616334230455040,154
599616334238140032,154
599616334245825024,147
599616334253510144,137
599616334261195136,128
599616334268880128,125
599616334276565248,132
599616334284250240,157
599616334291935232,169
599616334299620352,164
599616334307305344,161
599616334314990359,147
599616334322675840,128
599616334330361344,130
599616334338046720,137
599616334345732224,135
599616334353417600,130
599616334361103104,132
599616334368788480,132
599616334376473984,128
599616334384159488,120
599616334391844864,67
599616334399530368,-60
599616334407215744,-70
599616334414901248,292
599616334422586624,874
599616334430272128,1046
599616334437957632,430
599616334445643008,-227
599616334453328512,-183
599616334461013888,74
599616334468699392,99
599616334476384896,74
599616334484070272,87
599616334491755776,82
599616334499441152,87
599616334507126656,96
599616334514812032,99
599616334522497536,101
599616334530183040,106
599616334537868416,106
599616334545553920,108
599616334553239296,111
599616334560924800,111
599616334568610176,116
599616334576295680,118
599616334583981184,120
599616334591666560,123
599616334599352064,125
599616334607037440,128
599616334614722944,132
599616334622408320,135
599616334630093824,137
599616334637779328,140
599616334645464704,142
599616334653150208,140
599616334660835584,140
599616334668521088,135
599616334676206464,125
599616334683891968,111
599616334691577472,91
599616334699262848,70
599616334706948352,55
599616334714633728,48
599616334722319232,45
599616334730004608,45
599616334737690112,43
599616334745375616,43
599616334753060992,45
599616334760746496,48
599616334768431872,48
599616334776117376,50
599616334783802880,53
599616334791488256,53
599616334799173760,50
599616334806859136,50
599616334814544640,53
599616334822230016,53
599616334829915520,50
599616334837601024,53
599616334845286400,55
599616334852971904,53
599616334860657280,53
599616334868342784,53
599616334876028184,53
599616334883713152,53
599616334891398144,50
599616334899083264,50
599616334906768256,48
599616334914453248,45
599616334922138368,43
599616334929823360,45
599616334937508352,45
599616334945193344,43
599616334952878464,43
599616334960563456,43
599616334968248448,41
599616334975933568,43
599616334983618560,45
599616334991303552,43
599616334998988672,38
599616335006673664,31
599616335014358656,21
599616335022043776,14
599616335029728768,14
599616335037413760,31
599616335045098880,58
599616335052783872,65
599616335060468864,65
599616335068153856,67
599616335075838976,50
599616335083523968,33
599616335091208960,38
599616335098894080,43
599616335106579072,38
599616335114264064,38
599616335121949184,43
599616335129634176,41
599616335137319168,38
599616335145004288,24
599616335152689280,-62
599616335160374272,-195
599616335168059264,-101
599616335175744384,403
599616335183429376,990
599616335191114368,966
599616335198799488,234
599616335206484480,-290
599616335214169472,-164
599616335221854592,29
599616335229539584,-9
599616335237224576,-50
599616335244909696,-19
599616335252594688,-4
599616335260279680,-12
599616335267964672,0
599616335275649792,9
599616335283334784,7
599616335291019776,12
599616335298704896,16
599616335306389888,14
599616335314074880,16
599616335321760000,21
599616335329444992,26
599616335337129984,29
599616335344815104,31
599616335352500096,36
599616335360185088,38
599616335367870208,41
599616335375555200,43
599616335383240192,45
599616335390925184,50
599616335398610304,50
599616335406295296,48
599616335413980288,45
599616335421665408,43
599616335429350400,41
599616335437035495,33
599616335444720768,24
599616335452406016,9
599616335460091392,-4
599616335467776640,-9
599616335475462016,-14
599616335483147264,-19
599616335490832640,-19
599616335498517888,-16
599616335506203264,-19
599616335513888512,-19
599616335521573888,-16
599616335529259136,-12
599616335536944512,-12
599616335544629760,-9
599616335552315136,-9
599616335560000384,-7
599616335567685760,-4
599616335575371008,-2
599616335583056384,-2
599616335590741632,-4
599616335598427008,-2
599616335606112256,0
599616335613797632,2
599616335621482880,2
599616335629168256,0
599616335636853504,0
599616335644538880,2
599616335652224128,2
599616335659909504,0
599616335667594752,0
599616335675280128,0
599616335682965376,2
599616335690650752,0
599616335698336000,-2
599616335706021376,-2
599616335713706624,0
599616335721392000,-2
599616335729077248,-2
599616335736762496,-2
599616335744447872,0
599616335752133120,-2
599616335759818496,0
599616335767503744,0
599616335775189120,-2
599616335782874368,-4
599616335790559744,-2
599616335798244992,-4
599616335805930368,-7
599616335813615616,-7
599616335821300992,-7
599616335828986240,-9
599616335836671616,-9
599616335844356864,-9
599616335852042240,-7
599616335859727488,-7
599616335867412864,-7
599616335875098112,-12
599616335882783488,-16
599616335890468736,-19
599616335898154112,-24
599616335905839360,-31
599616335913524736,-16
599616335921209984,12
599616335928895360,21
599616335936580608,14
599616335944265984,14
599616335951951232,4
599616335959636608,-14
599616335967321856,-16
599616335975007232,-7
599616335982692480,-7
599616335990377856,-9
599616335998063148,-9
599616336005748224,-7
599616336013433344,-7
599616336021118592,-21
599616336028803712,-108
599616336036488960,-227
599616336044174080,-116
599616336051859200,377
599616336059544448,903
599616336067229568,787
599616336074914816,14
599616336082599936,-444
599616336090285056,-244
599616336097970304,-43
599616336105655424,-45
599616336113340672,-45
599616336121025792,-43
599616336128710912,-45
599616336136396160,-33
599616336144081280,-26
599616336151766528,-26
599616336159451648,-19
599616336167136768,-14
599616336174822016,-12
599616336182507136,-7
599616336190192384,-2
599616336197877504,-4
599616336205562624,0
599616336213247872,9
599616336220932992,12
599616336228618240,14
599616336236303360,21
599616336243988480,24
599616336251673728,31
599616336259358848,38
599616336267044096,43
599616336274729216,45
599616336282414336,48
599616336290099584,50
599616336297784704,48
599616336305469952,43
599616336313155072,38
599616336320840192,26
599616336328525440,2
599616336336210560,-24
599616336343895808,-43
599616336351580928,-55
599616336359266048,-65
599616336366951296,-67
599616336374636416,-70
599616336382321664,-70
599616336390006784,-65
599616336397691904,-60
599616336405377152,-58
599616336413062272,-55
599616336420747392,-58
599616336428432640,-55
599616336436117760,-53
599616336443803008,-48
599616336451488128,-48
599616336459173248,-43
599616336466858496,-38
599616336474543616,-38
599616336482228864,-43
599616336489913984,-41
599616336497599104,-36
599616336505284352,-36
599616336512969472,-36
599616336520654720,-38
599616336528339840,-38
599616336536024960,-36
599616336543710208,-36
599616336551395328,-38
599616336559080627,-43
599616336566765568,-41
599616336574450560,-36
599616336582135680,-36
599616336589820672,-38
599616336597505664,-38
599616336605190784,-36
599616336612875776,-36
599616336620560768,-38
599616336628245760,-41
599616336635930880,-41
599616336643615872,-38
599616336651300864,-36
599616336658985984,-36
599616336666670976,-36
599616336674355968,-36
599616336682041088,-33
599616336689726080,-33
599616336697411072,-33
599616336705096192,-36
599616336712781184,-36
599616336720466176,-41
599616336728151168,-48
599616336735836288,-50
599616336743521280,-53
599616336751206272,-41
599616336758891392,-14
599616336766576384,-4
599616336774261376,-9
599616336781946496,-12
599616336789631488,-19
599616336797316480,-33
599616336805001600,-38
599616336812686592,-33
599616336820371584,-33
599616336828056704,-36
599616336835741696,-33
599616336843426688,-33
599616336851111680,-33
599616336858796800,-33
599616336866481792,-84
599616336874166784,-210
599616336881851904,-215
599616336889536896,142
599616336897221888,691
599616336904907008,797
599616336912592000,145
599616336920276992,-459
599616336927962112,-343
599616336935647104,-96
599616336943332096,-82
599616336951017088,-36
599616336958702208,-9
599616336966387200,-55
599616336974072192,-45
599616336981757312,-19
599616336989442304,-31
599616336997127296,-31
599616337004812416,-14
599616337012497408,-14
599616337020182400,-19
599616337027867520,-12
599616337035552512,-4
599616337043237504,-7
599616337050922496,-4
599616337058607616,9
599616337066292608,16
599616337073977600,14
599616337081662720,19
599616337089347712,31
599616337097032704,33
599616337104717824,38
599616337112402816,50
599616337120087934,55
599616337127772928,50
599616337135457920,53
599616337143143040,55
599616337150828032,45
599616337158513024,26
599616337166198144,-2
599616337173883136,-36
599616337181568128,-60
599616337189253120,-74
599616337196938240,-84
599616337204623232,-87
599616337212308224,-89
599616337219993344,-89
599616337227678336,-87
599616337235363328,-79
599616337243048448,-77
599616337250733440,-77
599616337258418432,-77
599616337266103552,-70
599616337273788544,-67
599616337281473536,-67
599616337289158528,-62
599616337296843648,-58
599616337304528640,-58
599616337312213632,-60
599616337319898752,-58
599616337327583744,-58
599616337335268736,-55
599616337342953856,-53
599616337350638848,-50
599616337358323840,-53
599616337366008960,-50
599616337373693952,-50
599616337381378944,-53
599616337389064064,-50
599616337396749056,-48
599616337404434048,-53
599616337412119040,-53
599616337419804160,-45
599616337427489152,-48
599616337435174144,-53
599616337442859264,-45
599616337450544256,-43
599616337458229248,-45
599616337465914368,-41
599616337473599360,-43
599616337481284352,-50
599616337488969472,-45
599616337496654464,-41
599616337504339456,-43
599616337512024448,-45
599616337519709568,-41
599616337527394560,-43
599616337535079552,-53
599616337542764672,-55
599616337550449664,-62
599616337558134656,-58
599616337565819776,-29
599616337573504768,-12
599616337581189760,-14
599616337588874880,-16
599616337596559872,-21
599616337604244864,-38
599616337611929856,-43
599616337619614976,-38
599616337627299968,-36
599616337634984960,-38
599616337642670080,-36
599616337650355072,-33
599616337658040064,-33
599616337665725184,-38
599616337673410176,-62
599616337681095241,-159
599616337688780800,-236
599616337696466304,-38
599616337704151680,459
599616337711837184,775
599616337719522560,393
599616337727208064,-285
599616337734893440,-401
599616337742578944,-140
599616337750264448,-58
599616337757949824,-55
599616337765635328,-31
599616337773320704,-48
599616337781006208,-50
599616337788691584,-31
599616337796377088,-31
599616337804062592,-36
599616337811747968,-29
599616337819433472,-24
599616337827118848,-26
599616337834804352,-24
599616337842489856,-16
599616337850175232,-12
599616337857860736,-12
599616337865546112,-9
599616337873231616,0
599616337880916992,4
599616337888602496,9
599616337896288000,16
599616337903973376,21
599616337911658880,29
599616337919344256,36
599616337927029760,41
599616337934715136,43
599616337942400640,43
599616337950086144,41
599616337957771520,36
599616337965457024,24
599616337973142400,4
599616337980827904,-24
599616337988513280,-53
599616337996198784,-67
599616338003884288,-77
599616338011569664,-82
599616338019255168,-79
599616338026940544,-77
599616338034626048,-82
599616338042311424,-79
599616338049996928,-72
599616338057682432,-70
599616338065367808,-67
599616338073053312,-67
599616338080738688,-65
599616338088424192,-62
599616338096109568,-60
599616338103795072,-60
599616338111480576,-55
599616338119165952,-53
599616338126851456,-53
599616338134536832,-53
599616338142222336,-45
599616338149907840,-48
599616338157593216,-48
599616338165278720,-45
599616338172964096,-43
599616338180649600,-45
599616338188334976,-48
599616338196020480,-45
599616338203705984,-43
599616338211391360,-43
599616338219076864,-45
599616338226762240,-45
599616338234447744,-45
599616338242133066,-45
599616338249818112,-45
599616338257503104,-43
599616338265188224,-45
599616338272873216,-48
599616338280558208,-45
599616338288243328,-41
599616338295928320,-43
599616338303613312,-48
599616338311298304,-45
599616338318983424,-45
599616338326668416,-45
599616338334353408,-45
599616338342038528,-45
599616338349723520,-43
599616338357408512,-43
599616338365093632,-43
599616338372778624,-43
599616338380463616,-41
599616338388148736,-41
599616338395833728,-48
599616338403518720,-55
599616338411203840,-60
599616338418888832,-65
599616338426573824,-53
599616338434258816,-21
599616338441943936,-9
599616338449628928,-16
599616338457313920,-16
599616338464999040,-24
599616338472684032,-41
599616338480369024,-43
599616338488054144,-36
599616338495739136,-36
599616338503424128,-38
599616338511109248,-36
599616338518794240,-33
599616338526479232,-33
599616338534164224,-38
599616338541849344,-84
599616338549534336,-207
599616338557219328,-241
599616338564904448,77
599616338572589440,642
599616338580274432,865
599616338587959552,323
599616338595644544,-333
599616338603329536,-335
599616338611014656,-82
599616338618699648,-53
599616338626384640,-74
599616338634069632,-62
599616338641754752,-65
599616338649439744,-60
599616338657124736,-50
599616338664809856,-48
599616338672494848,-45
599616338680179840,-41
599616338687864960,-41
599616338695549952,-38
599616338703234944,-33
599616338710920064,-31
599616338718605056,-29
599616338726290048,-26
599616338733975168,-24
599616338741660160,-19
599616338749345152,-14
599616338757030144,-14
599616338764715264,-7
599616338772400256,0
599616338780085248,0
599616338787770368,2
599616338795455360,9
599616338803140377,9
599616338810825344,7
599616338818510336,7
599616338826195456,2
599616338833880448,-9
599616338841565440,-24
599616338849250560,-43
599616338856935552,-60
599616338864620544,-72
599616338872305536,-79
599616338879990656,-82
599616338887675648,-84
599616338895360640,-84
599616338903045760,-82
599616338910730752,-79
599616338918415744,-77
599616338926100864,-74
599616338933785856,-72
599616338941470848,-70
599616338949155968,-67
599616338956840960,-67
599616338964525952,-67
599616338972210944,-62
599616338979896064,-60
599616338987581056,-62
599616338995266048,-60
599616339002951168,-58
599616339010636160,-55
599616339018321152,-55
599616339026006272,-55
599616339033691264,-53
599616339041376256,-50
599616339049061376,-53
599616339056746368,-53
599616339064431360,-50
599616339072116480,-50
599616339079801472,-53
599616339087486464,-50
599616339095171456,-50
599616339102856576,-50
599616339110541568,-48
599616339118226560,-48
599616339125911680,-48
599616339133596672,-48
599616339141281664,-48
599616339148966784,-50
599616339156651776,-48
599616339164336768,-45
599616339172021888,-48
599616339179706880,-48
599616339187391872,-45
599616339195076864,-48
599616339202761984,-48
599616339210446976,-45
599616339218131968,-45
599616339225817088,-45
599616339233502080,-45
599616339241187072,-45
599616339248872192,-45
599616339256557184,-43
599616339264242176,-43
599616339271927296,-43
599616339279612288,-45
599616339287297280,-45
599616339294982272,-45
599616339302667392,-45
599616339310352384,-43
599616339318037376,-43
599616339325722496,-43
599616339333407488,-45
599616339341092480,-48
599616339348777600,-48
599616339356462592,-45
599616339364147684,-45
599616339371833216,-45
599616339379518720,-45
599616339387204096,-45
599616339394889600,-45
599616339402574976,-43
599616339410260480,-43
599616339417945856,-45
599616339425631360,-45
599616339433316864,-43
599616339441002240,-50
599616339448687744,-58
599616339456373120,-65
599616339464058624,-74
599616339471744000,-67
599616339479429504,-38
599616339487115008,-16
599616339494800384,-14
599616339502485888,-19
599616339510171264,-26
599616339517856768,-43
599616339525542272,-50
599616339533227648,-41
599616339540913152,-38
599616339548598528,-41
599616339556284032,-43
599616339563969408,-41
599616339571654912,-38
599616339579340416,-48
599616339587025792,-123
599616339594711296,-258
599616339602396672,-227
599616339610082176,203
599616339617767552,821
599616339625453056,964
599616339633138560,335
599616339640823936,-299
599616339648509440,-280
599616339656194816,-62
599616339663880320,-77
599616339671565696,-132
599616339679251200,-106
599616339686936704,-84
599616339694622080,-91
599616339702307584,-84
599616339709992960,-72
599616339717678464,-70
599616339725363840,-65
599616339733049344,-60
599616339740734848,-60
599616339748420224,-58
599616339756105728,-55
599616339763791104,-50
599616339771476608,-50
599616339779161984,-48
599616339786847488,-41
599616339794532992,-41
599616339802218368,-41
599616339809903872,-36
599616339817589248,-31
599616339825274752,-29
599616339832960256,-26
599616339840645632,-26
599616339848331136,-29
599616339856016512,-29
599616339863702016,-29
599616339871387392,-31
599616339879072896,-38
599616339886758400,-43
599616339894443776,-50
599616339902129280,-62
599616339909814656,-72
599616339917500160,-77
599616339925185509,-82
599616339932870528,-82
599616339940555520,-82
599616339948240640,-82
599616339955925632,-82
599616339963610624,-79
599616339971295744,-74
599616339978980736,-77
599616339986665728,-77
599616339994350720,-70
599616340002035840,-70
599616340009720832,-70
599616340017405824,-70
599616340025090944,-67
599616340032775936,-67
599616340040460928,-67
599616340048146048,-65
599616340055831040,-62
599616340063516032,-65
599616340071201152,-67
599616340078886144,-65
599616340086571136,-62
599616340094256128,-62
599616340101941248,-60
599616340109626240,-60
599616340117311232,-60
599616340124996352,-58
599616340132681344,-58
599616340140366336,-60
599616340148051456,-60
599616340155736448,-62
599616340163421440,-62
599616340171106560,-60
599616340178791552,-58
599616340186476544,-60
599616340194161664,-60
599616340201846656,-62
599616340209531648,-65
599616340217216640,-62
599616340224901760,-60
599616340232586752,-60
599616340240271744,-60
599616340247956864,-58
599616340255641856,-58
599616340263326848,-60
599616340271011968,-60
599616340278696960,-58
599616340286381952,-58
599616340294067072,-60
599616340301752064,-60
599616340309437056,-58
599616340317122048,-55
599616340324807168,-58
599616340332492160,-60
599616340340177152,-60
599616340347862272,-60
599616340355547264,-62
599616340363232256,-62
599616340370917376,-65
599616340378602368,-65
599616340386287360,-60
599616340393972480,-62
599616340401657472,-62
599616340409342464,-62
599616340417027456,-62
599616340424712576,-62
599616340432397568,-62
599616340440082560,-65
599616340447767680,-70
599616340455452672,-74
599616340463137664,-82
599616340470822784,-79
599616340478507776,-55
599616340486192816,-33
599616340493877760,-33
599616340501562752,-36
599616340509247872,-48
599616340516932864,-65
599616340524617856,-70
599616340532302976,-58
599616340539987968,-53
599616340547672960,-60
599616340555357952,-65
599616340563043072,-60
599616340570728064,-60
599616340578413056,-65
599616340586098176,-113
599616340593783168,-236
599616340601468160,-253
599616340609153280,94
599616340616838272,667
599616340624523264,838
599616340632208384,227
599616340639893376,-444
599616340647578368,-406
599616340655263360,-140
599616340662948480,-103
599616340670633472,-82
599616340678318464,-60
599616340686003584,-91
599616340693688576,-82
599616340701373568,-53
599616340709058688,-60
599616340716743680,-65
599616340724428672,-55
599616340732113792,-53
599616340739798784,-53
599616340747483776,-43
599616340755168896,-41
599616340762853888,-38
599616340770538880,-33
599616340778223872,-29
599616340785908992,-24
599616340793593984,-16
599616340801278976,-12
599616340808964096,-2
599616340816649088,4
599616340824334080,7
599616340832019200,12
599616340839704192,24
599616340847389184,26
599616340855074304,24
599616340862759296,21
599616340870444288,21
599616340878129280,14
599616340885814400,-7
599616340893499392,-38
599616340901184384,-67
599616340908869504,-87
599616340916554496,-103
599616340924239488,-113
599616340931924608,-113
599616340939609600,-118
599616340947294592,-118
599616340954979712,-111
599616340962664704,-111
599616340970349696,-108
599616340978034688,-101
599616340985719808,-99
599616340993404800,-101
599616341001089792,-99
599616341008774912,-94
599616341016459904,-89
599616341024144896,-87
599616341031830016,-87
599616341039515008,-84
599616341047200123,-79
599616341054885120,-82
599616341062570112,-84
599616341070255232,-79
599616341077940224,-74
599616341085625216,-79
599616341093310336,-79
599616341100995328,-77
599616341108680320,-79
599616341116365312,-79
599616341124050432,-77
599616341131735424,-79
599616341139420416,-79
599616341147105536,-79
599616341154790528,-77
599616341162475520,-77
599616341170160640,-79
599616341177845632,-77
599616341185530624,-74
599616341193215744,-74
599616341200900736,-72
599616341208585728,-72
599616341216270720,-74
599616341223955840,-72
599616341231640832,-67
599616341239325824,-72
599616341247010944,-74
599616341254695936,-67
599616341262380928,-70
599616341270066048,-74
599616341277751040,-65
599616341285436032,-62
599616341293121152,-77
599616341300806144,-79
599616341308491136,-77
599616341316176256,-87
599616341323861248,-84
599616341331546240,-58
599616341339231232,-38
599616341346916352,-41
599616341354601344,-41
599616341362286336,-50
599616341369971456,-74
599616341377656448,-74
599616341385341440,-67
599616341393026560,-67
599616341400711552,-67
599616341408396544,-65
599616341416081664,-65
599616341423766656,-65
599616341431451648,-67
599616341439136640,-91
599616341446821760,-186
599616341454506752,-265
599616341462191744,-62
599616341469876864,427
599616341477561856,713
599616341485246848,299
599616341492931968,-377
599616341500616960,-449
599616341508301952,-176
599616341515987072,-113
599616341523672064,-77
599616341531357056,-21
599616341539042048,-65
599616341546727168,-77
599616341554412160,-41
599616341562097152,-45
599616341569782272,-58
599616341577467264,-45
599616341585152256,-41
599616341592837376,-43
599616341600522368,-41
599616341608207430,-33
599616341615892992,-26
599616341623578496,-26
599616341631263872,-24
599616341638949376,-14
599616341646634752,-9
599616341654320256,-4
599616341662005632,2
599616341669691136,9
599616341677376640,16
599616341685062016,26
599616341692747520,29
599616341700432896,33
599616341708118400,41
599616341715803776,36
599616341723489280,24
599616341731174784,16
599616341738860160,0
599616341746545664,-33
599616341754231040,-70
599616341761916544,-89
599616341769602048,-99
599616341777287424,-111
599616341784972928,-113
599616341792658304,-111
599616341800343808,-111
599616341808029184,-106
599616341815714688,-103
599616341823400192,-103
599616341831085568,-101
599616341838771072,-99
599616341846456448,-96
599616341854141952,-91
599616341861827328,-89
599616341869512832,-91
599616341877198336,-94
599616341884883712,-84
599616341892569216,-77
599616341900254592,-79
599616341907940096,-82
599616341915625472,-74
599616341923310976,-72
599616341930996480,-74
599616341938681856,-74
599616341946367360,-72
599616341954052736,-72
599616341961738240,-72
599616341969423616,-72
599616341977109120,-72
599616341984794624,-70
599616341992480000,-70
599616342000165504,-72
599616342007850880,-72
599616342015536384,-67
599616342023221888,-65
599616342030907264,-72
599616342038592768,-72
599616342046278144,-62
599616342053963648,-65
599616342061649024,-70
599616342069334528,-67
599616342077020032,-65
599616342084705408,-74
599616342092390912,-84
599616342100076288,-84
599616342107761792,-67
599616342115447168,-43
599616342123132672,-36
599616342130818176,-36
599616342138503552,-36
599616342146189056,-53
599616342153874432,-65
599616342161559936,-60
599616342169245259,-55
599616342176930304,-55
599616342184615296,-58
599616342192300416,-58
599616342199985408,-55
599616342207670400,-53
599616342215355520,-65
599616342223040512,-125
599616342230725504,-234
599616342238410496,-190
599616342246095616,188
599616342253780608,657
599616342261465600,599
599616342269150720,-60
599616342276835712,-468
599616342284520704,-273
599616342292205824,-89
599616342299890816,-79
599616342307575808,-48
599616342315260928,-50
599616342322945920,-74
599616342330630912,-55
599616342338315904,-45
599616342346001024,-53
599616342353686016,-48
599616342361371008,-43
599616342369056128,-45
599616342376741120,-43
599616342384426112,-36
599616342392111232,-33
599616342399796224,-33
599616342407481216,-26
599616342415166336,-21
599616342422851328,-21
599616342430536320,-12
599616342438221440,-2
599616342445906432,-2
599616342453591424,2
599616342461276416,14
599616342468961536,21
599616342476646528,24
599616342484331520,26
599616342492016640,26
599616342499701632,24
599616342507386624,14
599616342515071744,-2
599616342522756736,-29
599616342530441728,-58
599616342538126848,-77
599616342545811840,-87
599616342553496832,-94
599616342561181824,-101
599616342568866944,-101
599616342576551936,-99
599616342584236928,-96
599616342591922048,-94
599616342599607040,-91
599616342607292032,-89
599616342614977152,-87
599616342622662144,-87
599616342630347136,-82
599616342638032256,-77
599616342645717248,-77
599616342653402240,-79
599616342661087232,-74
599616342668772352,-70
599616342676457344,-67
599616342684142336,-67
599616342691827456,-67
599616342699512448,-65
599616342707197440,-65
599616342714882560,-65
599616342722567552,-65
599616342730252566,-62
599616342737937536,-65
599616342745622528,-67
599616342753307648,-65
599616342760992640,-62
599616342768677632,-65
599616342776362752,-65
599616342784047744,-65
599616342791732736,-67
599616342799417728,-67
599616342807102848,-65
599616342814787840,-62
599616342822472832,-62
599616342830157952,-65
599616342837842944,-65
599616342845527936,-62
599616342853213056,-62
599616342860898048,-65
599616342868583040,-65
599616342876268160,-67
599616342883953152,-72
599616342891638144,-77
599616342899323136,-87
599616342907008256,-87
599616342914693248,-60
599616342922378240,-38
599616342930063360,-36
599616342937748352,-33
599616342945433344,-33
599616342953118464,-53
599616342960803456,-65
599616342968488448,-55
599616342976173568,-55
599616342983858560,-55
599616342991543552,-55
599616342999228672,-55
599616343006913664,-55
599616343014598656,-53
599616343022283648,-67
599616343029968768,-145
599616343037653760,-263
599616343045338752,-176
599616343053023872,277
599616343060708864,790
599616343068393856,713
599616343076078976,-4
599616343083763968,-442
599616343091448960,-248
599616343099134080,-62
599616343106819072,-84
599616343114504064,-91
599616343122189056,-79
599616343129874176,-82
599616343137559168,-77
599616343145244160,-67
599616343152929280,-65
599616343160614272,-65
599616343168299264,-60
599616343175984384,-58
599616343183669376,-53
599616343191354368,-50
599616343199039488,-50
599616343206724480,-48
599616343214409472,-41
599616343222094464,-41
599616343229779584,-38
599616343237464576,-31
599616343245149568,-29
599616343252834688,-26
599616343260519680,-21
599616343268204672,-14
599616343275889792,-9
599616343283574784,-9
599616343291259873,-9
599616343298945408,-7
599616343306630912,-9
599616343314316288,-16
599616343322001792,-29
599616343329687168,-43
599616343337372672,-62
599616343345058048,-79
599616343352743552,-89
599616343360429056,-94
599616343368114432,-99
599616343375799936,-101
599616343383485312,-99
599616343391170816,-96
599616343398856192,-94
599616343406541696,-91
599616343414227200,-87
599616343421912576,-84
599616343429598080,-84
599616343437283456,-82
599616343444968960,-79
599616343452654464,-79
599616343460339840,-79
599616343468025344,-77
599616343475710720,-74
599616343483396224,-74
599616343491081600,-74
599616343498767104,-72
599616343506452608,-70
599616343514137984,-70
599616343521823488,-70
599616343529508864,-67
599616343537194368,-67
599616343544879744,-67
599616343552565248,-67
599616343560250752,-67
599616343567936128,-67
599616343575621632,-67
599616343583307008,-65
599616343590992512,-65
599616343598677888,-67
599616343606363392,-65
599616343614048896,-65
599616343621734272,-62
599616343629419776,-62
599616343637105152,-65
599616343644790656,-65
599616343652476032,-65
599616343660161536,-62
599616343667847040,-62
599616343675532416,-65
599616343683217920,-62
599616343690903296,-62
599616343698588800,-60
599616343706274176,-60
599616343713959680,-60
599616343721645184,-60
599616343729330560,-58
599616343737016064,-58
599616343744701440,-62
599616343752386944,-72
599616343760072448,-79
599616343767757824,-84
599616343775443328,-82
599616343783128704,-55
599616343790814208,-31
599616343798499584,-33
599616343806185088,-33
599616343813870592,-33
599616343821555968,-53
599616343829241472,-67
599616343836926848,-58
599616343844612352,-53
599616343852297698,-58
599616343859982720,-58
599616343867667712,-55
599616343875352832,-58
599616343883037824,-62
599616343890722816,-82
599616343898407936,-174
599616343906092928,-292
599616343913777920,-161
599616343921462912,350
599616343929148032,884
599616343936833024,768
599616343944518016,7
599616343952203136,-435
599616343959888128,-244
599616343967573120,-60
599616343975258240,-103
599616343982943232,-135
599616343990628224,-108
599616343998313344,-101
599616344005998336,-101
599616344013683328,-89
599616344021368320,-84
599616344029053440,-82
599616344036738432,-77
599616344044423424,-72
599616344052108544,-70
599616344059793536,-67
599616344067478528,-62
599616344075163648,-58
599616344082848640,-55
599616344090533632,-50
599616344098218752,-45
599616344105903744,-41
599616344113588736,-33
599616344121273856,-29
599616344128958848,-26
599616344136643840,-19
599616344144328832,-12
599616344152013952,-7
599616344159698944,-9
599616344167383936,-12
599616344175069056,-12
599616344182754048,-19
599616344190439040,-29
599616344198124160,-43
599616344205809152,-62
599616344213494144,-87
599616344221179264,-99
599616344228864256,-103
599616344236549248,-108
599616344244234240,-113
599616344251919360,-108
599616344259604352,-106
599616344267289344,-113
599616344274974464,-108
599616344282659456,-99
599616344290344448,-96
599616344298029568,-96
599616344305714560,-96
599616344313399552,-94
599616344321084672,-94
599616344328769664,-91
599616344336454656,-87
599616344344139648,-87
599616344351824768,-84
599616344359509760,-84
599616344367194752,-87
599616344374879872,-84
599616344382564864,-84
599616344390249856,-84
599616344397934976,-84
599616344405619968,-84
599616344413305005,-84
599616344420989952,-84
599616344428674944,-82
599616344436360064,-84
599616344444045056,-82
599616344451730048,-82
599616344459415168,-87
599616344467100160,-87
599616344474785152,-82
599616344482470144,-77
599616344490155264,-82
599616344497840256,-82
599616344505525248,-79
599616344513210368,-79
599616344520895360,-79
599616344528580352,-74
599616344536265472,-74
599616344543950464,-79
599616344551635456,-79
599616344559320576,-77
599616344567005568,-82
599616344574690560,-89
599616344582375552,-94
599616344590060672,-94
599616344597745664,-84
599616344605430656,-58
599616344613115776,-45
599616344620800768,-45
599616344628485760,-45
599616344636170880,-58
599616344643855872,-72
599616344651540864,-72
599616344659225984,-70
599616344666910976,-72
599616344674595968,-72
599616344682281088,-67
599616344689966080,-65
599616344697651072,-67
599616344705336064,-70
599616344713021184,-96
599616344720706176,-207
599616344728391168,-277
599616344736076288,-29
599616344743761280,505
599616344751446272,787
599616344759131392,309
599616344766816384,-413
599616344774501376,-466
599616344782186496,-174
599616344789871488,-116
599616344797556480,-87
599616344805241472,-38
599616344812926592,-77
599616344820611584,-89
599616344828296576,-60
599616344835981696,-58
599616344843666688,-65
599616344851351680,-55
599616344859036800,-48
599616344866721792,-53
599616344874406784,-50
599616344882091904,-43
599616344889776896,-41
599616344897461888,-38
599616344905146880,-31
599616344912832000,-24
599616344920516992,-21
599616344928201984,-16
599616344935887104,-9
599616344943572096,0
599616344951257088,9
599616344958942208,16
599616344966627200,19
599616344974312312,24
599616344981997312,26
599616344989682304,24
599616344997367424,19
599616345005052416,9
599616345012737408,-16
599616345020422528,-50
599616345028107520,-82
599616345035792512,-103
599616345043477504,-118
599616345051162624,-125
599616345058847616,-128
599616345066532608,-123
599616345074217728,-120
599616345081902720,-123
599616345089587712,-123
599616345097272832,-118
599616345104957824,-113
599616345112642816,-108
599616345120327936,-103
599616345128012928,-101
599616345135697920,-103
599616345143383040,-99
599616345151068032,-91
599616345158753024,-91
599616345166438016,-94
599616345174123136,-89
599616345181808128,-84
599616345189493120,-84
599616345197178240,-84
599616345204863232,-82
599616345212548224,-87
599616345220233344,-84
599616345227918336,-82
599616345235603328,-84
599616345243288448,-84
599616345250973440,-82
599616345258658432,-79
599616345266343424,-82
599616345274028544,-84
599616345281713536,-84
599616345289398528,-77
599616345297083648,-77
599616345304768640,-79
599616345312453632,-74
599616345320138752,-72
599616345327823744,-79
599616345335508736,-84
599616345343193856,-77
599616345350878848,-79
599616345358563840,-89
599616345366248832,-94
599616345373933952,-89
599616345381618944,-65
599616345389303936,-45
599616345396989056,-53
599616345404674048,-53
599616345412359040,-53
599616345420044160,-72
599616345427729152,-79
599616345435414144,-70
599616345443099264,-67
599616345450784256,-67
599616345458469248,-67
599616345466154368,-70
599616345473839360,-67
599616345481524352,-65
599616345489209344,-77
599616345496894464,-147
599616345504579456,-251
599616345512264448,-159
599616345519949568,261
599616345527634560,669
599616345535319623,473
599616345543004672,-203
599616345550689664,-471
599616345558374784,-232
599616345566059776,-94
599616345573744768,-82
599616345581429888,-45
599616345589114880,-60
599616345596799872,-77
599616345604484864,-53
599616345612169984,-45
599616345619854976,-55
599616345627539968,-55
599616345635225088,-48
599616345642910080,-45
599616345650595072,-45
599616345658280192,-41
599616345665965184,-36
599616345673650176,-31
599616345681335296,-29
599616345689020288,-24
599616345696705280,-19
599616345704390272,-12
599616345712075392,-4
599616345719760384,2
599616345727445376,4
599616345735130496,14
599616345742815488,24
599616345750500480,24
599616345758185600,24
599616345765870592,24
599616345773555584,21
599616345781240704,12
599616345788925696,-9
599616345796610688,-33
599616345804295808,-60
599616345811980800,-84
599616345819665792,-94
599616345827350784,-96
599616345835035904,-103
599616345842720896,-103
599616345850405888,-99
599616345858091008,-99
599616345865776000,-99
599616345873460992,-94
599616345881146112,-89
599616345888831104,-89
599616345896516096,-89
599616345904201216,-89
599616345911886208,-87
599616345919571200,-82
599616345927256192,-82
599616345934941312,-82
599616345942626304,-77
599616345950311296,-74
599616345957996416,-74
599616345965681408,-74
599616345973366400,-72
599616345981051520,-72
599616345988736512,-70
599616345996421504,-67
599616346004106624,-67
599616346011791616,-72
599616346019476608,-74
599616346027161600,-70
599616346034846720,-70
599616346042531712,-74
599616346050216704,-72
599616346057901824,-65
599616346065586816,-70
599616346073271808,-72
599616346080956928,-67
599616346088641920,-67
599616346096326930,-70
599616346104012416,-67
599616346111697920,-67
599616346119383296,-67
599616346127068800,-70
599616346134754176,-77
599616346142439680,-84
599616346150125056,-87
599616346157810560,-77
599616346165496064,-58
599616346173181440,-45
599616346180866944,-41
599616346188552320,-36
599616346196237824,-50
599616346203923200,-70
599616346211608704,-67
599616346219294208,-58
599616346226979584,-60
599616346234665088,-60
599616346242350464,-58
599616346250035968,-60
599616346257721472,-60
599616346265406848,-60
599616346273092352,-87
599616346280777728,-188
599616346288463232,-265
599616346296148608,-62
599616346303834112,449
599616346311519616,795
599616346319204992,422
599616346326890496,-287
599616346334575872,-427
599616346342261376,-159
599616346349946752,-67
599616346357632256,-79
599616346365317760,-70
599616346373003136,-77
599616346380688640,-77
599616346388374016,-62
599616346396059520,-60
599616346403744896,-60
599616346411430400,-58
599616346419115904,-58
599616346426801280,-55
599616346434486784,-50
599616346442172160,-48
599616346449857664,-45
599616346457543040,-41
599616346465228544,-36
599616346472914048,-36
599616346480599424,-33
599616346488284928,-24
599616346495970304,-21
599616346503655808,-16
599616346511341184,-9
599616346519026688,-9
599616346526712192,-9
599616346534397568,-4
599616346542083072,0
599616346549768448,-2
599616346557453952,-9
599616346565139456,-16
599616346572824832,-31
599616346580510336,-53
599616346588195712,-72
599616346595881216,-82
599616346603566592,-89
599616346611252096,-96
599616346618937600,-101
599616346626622976,-99
599616346634308480,-96
599616346641993856,-94
599616346649679360,-91
599616346657364755,-89
599616346665049728,-87
599616346672734720,-87
599616346680419840,-84
599616346688104832,-84
599616346695789824,-82
599616346703474944,-82
599616346711159936,-79
599616346718844928,-77
599616346726529920,-77
599616346734215040,-77
599616346741900032,-77
599616346749585024,-72
599616346757270144,-74
599616346764955136,-74
599616346772640128,-72
599616346780325248,-72
599616346788010240,-72
599616346795695232,-72
599616346803380352,-72
599616346811065344,-72
599616346818750336,-70
599616346826435328,-70
599616346834120448,-72
599616346841805440,-72
599616346849490432,-72
599616346857175552,-72
599616346864860544,-70
599616346872545536,-67
599616346880230656,-70
599616346887915648,-70
599616346895600640,-70
599616346903285760,-70
599616346910970752,-67
599616346918655744,-70
599616346926340864,-70
599616346934025856,-70
599616346941710848,-67
599616346949395840,-67
599616346957080960,-67
599616346964765952,-65
599616346972450944,-67
599616346980136064,-72
599616346987821056,-79
599616346995506048,-87
599616347003191168,-91
599616347010876160,-87
599616347018561152,-58
599616347026246272,-38
599616347033931264,-43
599616347041616256,-38
599616347049301248,-38
599616347056986368,-60
599616347064671360,-72
599616347072356352,-62
599616347080041472,-58
599616347087726464,-62
599616347095411456,-62
599616347103096576,-60
599616347110781568,-60
599616347118466560,-60
599616347126151680,-77
599616347133836672,-169
599616347141521664,-287
599616347149206656,-159
599616347156891776,348
599616347164576768,879
599616347172261760,766
599616347179946880,16
599616347187631872,-420
599616347195316864,-227
599616347203001984,-45
599616347210686976,-103
599616347218372062,-135
599616347226057088,-99
599616347233742080,-91
599616347241427200,-96
599616347249112192,-84
599616347256797184,-79
599616347264482304,-79
599616347272167296,-74
599616347279852288,-72
599616347287537280,-67
599616347295222400,-65
599616347302907392,-62
599616347310592384,-60
599616347318277504,-58
599616347325962496,-55
599616347333647488,-53
599616347341332608,-48
599616347349017600,-45
599616347356702592,-45
599616347364387712,-41
599616347372072704,-38
599616347379757696,-38
599616347387442688,-36
599616347395127808,-36
599616347402812800,-38
599616347410497792,-43
599616347418182912,-45
599616347425867904,-53
599616347433552896,-60
599616347441238016,-72
599616347448923008,-82
599616347456608000,-89
599616347464293120,-89
599616347471978112,-94
599616347479663104,-96
599616347487348224,-96
599616347495033216,-94
599616347502718208,-91
599616347510403200,-87
599616347518088320,-84
599616347525773312,-82
599616347533458304,-82
599616347541143424,-82
599616347548828416,-77
599616347556513408,-77
599616347564198528,-77
599616347571883520,-74
599616347579568512,-72
599616347587253632,-72
599616347594938624,-74
599616347602623616,-74
599616347610308608,-72
599616347617993728,-70
599616347625678720,-72
599616347633363712,-70
599616347641048832,-67
599616347648733824,-65
599616347656418816,-67
599616347664103936,-70
599616347671788928,-67
599616347679473920,-67
599616347687159040,-70
599616347694844032,-72
599616347702529024,-70
599616347710214016,-67
599616347717899136,-72
599616347725584128,-74
599616347733269120,-67
599616347740954240,-67
599616347748639232,-70
599616347756324224,-70
599616347764009344,-70
599616347771694336,-70
599616347779379369,-70
599616347787064832,-70
599616347794750336,-67
599616347802435712,-67
599616347810121216,-70
599616347817806592,-70
599616347825492096,-67
599616347833177472,-67
599616347840862976,-72
599616347848548480,-77
599616347856233856,-87
599616347863919360,-96
599616347871604736,-91
599616347879290240,-70
599616347886975616,-48
599616347894661120,-43
599616347902346624,-43
599616347910032000,-48
599616347917717504,-65
599616347925402880,-77
599616347933088384,-74
599616347940773888,-70
599616347948459264,-72
599616347956144768,-74
599616347963830144,-72
599616347971515648,-67
599616347979201024,-67
599616347986886528,-84
599616347994572032,-166
599616348002257408,-275
599616348009942912,-166
599616348017628288,311
599616348025313792,814
599616348032999168,671
599616348040684672,-99
599616348048370176,-514
599616348056055552,-285
599616348063741056,-87
599616348071426432,-89
599616348079111936,-89
599616348086797312,-91
599616348094482816,-96
599616348102168320,-82
599616348109853696,-77
599616348117539200,-74
599616348125224576,-67
599616348132910080,-62
599616348140595456,-62
599616348148280960,-62
599616348155966464,-58
599616348163651840,-50
599616348171337344,-50
599616348179022720,-50
599616348186708224,-41
599616348194393600,-36
599616348202079104,-33
599616348209764608,-26
599616348217449984,-19
599616348225135488,-14
599616348232820864,-12
599616348240506368,-7
599616348248191872,0
599616348255877248,4
599616348263562752,2
599616348271248128,-2
599616348278933632,-4
599616348286619008,-19
599616348294304512,-41
599616348301990016,-65
599616348309675392,-87
599616348317360896,-106
599616348325046272,-116
599616348332731776,-118
599616348340417194,-116
599616348348102144,-118
599616348355787136,-120
599616348363472256,-123
599616348371157248,-116
599616348378842240,-111
599616348386527360,-113
599616348394212352,-111
599616348401897344,-103
599616348409582336,-103
599616348417267456,-103
599616348424952448,-96
599616348432637440,-94
599616348440322560,-96
599616348448007552,-96
599616348455692544,-91
599616348463377664,-91
599616348471062656,-89
599616348478747648,-89
599616348486432768,-89
599616348494117760,-89
599616348501802752,-89
599616348509487872,-87
599616348517172864,-87
599616348524857856,-91
599616348532542848,-91
599616348540227968,-89
599616348547912960,-89
599616348555597952,-89
599616348563283072,-84
599616348570968064,-82
599616348578653056,-84
599616348586338176,-89
599616348594023168,-87
599616348601708160,-79
599616348609393280,-82
599616348617078272,-87
599616348624763264,-94
599616348632448256,-101
599616348640133376,-103
599616348647818368,-87
599616348655503360,-62
599616348663188480,-55
599616348670873472,-55
599616348678558464,-58
599616348686243584,-72
599616348693928576,-82
599616348701613568,-74
599616348709298688,-74
599616348716983680,-77
599616348724668672,-77
599616348732353664,-74
599616348740038784,-74
599616348747723776,-70
599616348755408768,-74
599616348763093888,-118
599616348770778880,-229
599616348778463872,-258
599616348786148992,53
599616348793833984,577
599616348801518976,703
599616348809204096,96
599616348816889088,-502
599616348824574080,-406
599616348832259200,-149
599616348839944192,-118
599616348847629184,-62
599616348855314176,-38
599616348862999296,-89
599616348870684288,-79
599616348878369280,-53
599616348886054400,-62
599616348893739392,-62
599616348901424505,-53
599616348909109504,-55
599616348916794496,-53
599616348924479616,-45
599616348932164608,-43
599616348939849600,-43
599616348947534720,-41
599616348955219712,-36
599616348962904704,-29
599616348970589696,-19
599616348978274816,-14
599616348985959808,-14
599616348993644800,-7
599616349001329920,7
599616349009014912,7
599616349016699904,7
599616349024385024,12
599616349032070016,16
599616349039755008,16
599616349047440128,7
599616349055125120,-7
599616349062810112,-33
599616349070495104,-72
599616349078180224,-99
599616349085865216,-108
599616349093550208,-116
599616349101235328,-125
599616349108920320,-130
599616349116605312,-125
599616349124290432,-120
599616349131975424,-123
599616349139660416,-123
599616349147345536,-113
599616349155030528,-108
599616349162715520,-111
599616349170400640,-108
599616349178085632,-96
599616349185770624,-91
599616349193455616,-99
599616349201140736,-101
599616349208825728,-89
599616349216510720,-87
599616349224195840,-91
599616349231880832,-89
599616349239565824,-87
599616349247250944,-87
599616349254935936,-87
599616349262620928,-89
599616349270306048,-87
599616349277991040,-84
599616349285676032,-87
599616349293361024,-87
599616349301046144,-82
599616349308731136,-84
599616349316416128,-89
599616349324101248,-82
599616349331786240,-82
599616349339471232,-89
599616349347156352,-82
599616349354841344,-82
599616349362526336,-94
599616349370211456,-94
599616349377896448,-94
599616349385581440,-94
599616349393266432,-70
599616349400951552,-50
599616349408636544,-50
599616349416321536,-50
599616349424006656,-65
599616349431691648,-82
599616349439376640,-79
599616349447061760,-72
599616349454746752,-74
599616349462431812,-77
599616349470117376,-77
599616349477802880,-74
599616349485488256,-70
599616349493173760,-70
599616349500859136,-96
599616349508544640,-178
599616349516230016,-258
599616349523915520,-101
599616349531601024,352
599616349539286400,667
599616349546971904,316
599616349554657280,-333
599616349562342784,-439
599616349570028160,-181
599616349577713664,-96
599616349585399168,-77
599616349593084544,-43
599616349600770048,-72
599616349608455424,-82
599616349616140928,-58
599616349623826432,-55
599616349631511808,-60
599616349639197312,-53
599616349646882688,-48
599616349654568192,-50
599616349662253568,-48
599616349669939072,-43
599616349677624576,-41
599616349685309952,-38
599616349692995456,-31
599616349700680832,-26
599616349708366336,-21
599616349716051712,-19
599616349723737216,-9
599616349731422720,-2
599616349739108096,-2
599616349746793600,4
599616349754478976,9
599616349762164480,12
599616349769849856,9
599616349777535360,9
599616349785220864,7
599616349792906240,-4
599616349800591744,-26
599616349808277120,-55
599616349815962624,-79
599616349823648000,-91
599616349831333504,-99
599616349839019008,-106
599616349846704384,-108
599616349854389888,-106
599616349862075264,-103
599616349869760768,-101
599616349877446144,-99
599616349885131648,-96
599616349892817152,-94
599616349900502528,-91
599616349908188032,-89
599616349915873408,-87
599616349923558912,-84
599616349931244416,-82
599616349938929792,-84
599616349946615296,-82
599616349954300672,-77
599616349961986176,-77
599616349969671552,-79
599616349977357056,-77
599616349985042560,-72
599616349992727936,-74
599616350000413440,-77
599616350008098816,-77
599616350015784320,-74
599616350023469637,-77
599616350031154688,-77
599616350038839680,-74
599616350046524800,-70
599616350054209792,-72
599616350061894784,-77
599616350069579904,-77
599616350077264896,-72
599616350084949888,-72
599616350092634880,-74
599616350100320000,-79
599616350108004992,-79
599616350115689984,-84
599616350123375104,-91
599616350131060096,-94
599616350138745088,-79
599616350146430208,-55
599616350154115200,-48
599616350161800192,-45
599616350169485312,-43
599616350177170304,-55
599616350184855296,-72
599616350192540288,-67
599616350200225408,-60
599616350207910400,-65
599616350215595392,-67
599616350223280512,-62
599616350230965504,-62
599616350238650496,-62
599616350246335616,-60
599616350254020608,-89
599616350261705600,-193
599616350269390720,-265
599616350277075712,-45
599616350284760704,466
599616350292445824,773
599616350300130816,362
599616350307815808,-319
599616350315500800,-410
599616350323185920,-147
599616350330870912,-74
599616350338555904,-79
599616350346241024,-65
599616350353926016,-79
599616350361611008,-79
599616350369296128,-60
599616350376981120,-62
599616350384666112,-60
599616350392351232,-55
599616350400036224,-53
599616350407721216,-53
599616350415406208,-48
599616350423091328,-45
599616350430776320,-43
599616350438461312,-43
599616350446146432,-41
599616350453831424,-38
599616350461516416,-33
599616350469201536,-29
599616350476886528,-26
599616350484571520,-21
599616350492256640,-16
599616350499941632,-16
599616350507626624,-14
599616350515311616,-9
599616350522996736,-9
599616350530681728,-12
599616350538366720,-16
599616350546051840,-24
599616350553736832,-38
599616350561421824,-58
599616350569106944,-77
599616350576791936,-89
599616350584476944,-94
599616350592161920,-96
599616350599846912,-99
599616350607532032,-99
599616350615217024,-96
599616350622902016,-96
599616350630587136,-94
599616350638272128,-94
599616350645957120,-89
599616350653642112,-87
599616350661327232,-87
599616350669012224,-84
599616350676697216,-84
599616350684382336,-82
599616350692067328,-79
599616350699752320,-77
599616350707437440,-77
599616350715122432,-77
599616350722807424,-77
599616350730492544,-74
599616350738177536,-72
599616350745862528,-72
599616350753547520,-72
599616350761232640,-72
599616350768917632,-72
599616350776602624,-72
599616350784287744,-72
599616350791972736,-70
599616350799657728,-70
599616350807342848,-72
599616350815027840,-74
599616350822712832,-72
599616350830397952,-70
599616350838082944,-70
599616350845767936,-70
599616350853453056,-70
599616350861138048,-70
599616350868823040,-70
599616350876508032,-70
599616350884193152,-67
599616350891878144,-67
599616350899563136,-67
599616350907248256,-67
599616350914933248,-67
599616350922618240,-74
599616350930303360,-84
599616350937988352,-91
599616350945673344,-91
599616350953358464,-74
599616350961043456,-50
599616350968728448,-43
599616350976413440,-43
599616350984098560,-43
599616350991783552,-60
599616350999468544,-74
599616351007153664,-65
599616351014838656,-60
599616351022523648,-65
599616351030208768,-67
599616351037893760,-65
599616351045578752,-65
599616351053263872,-65
599616351060948864,-70
599616351068633856,-118
599616351076318848,-244
599616351084003968,-268
599616351091688960,67
599616351099373952,652
599616351107059072,879
599616351114744064,326
599616351122429056,-345
599616351130114176,-355
599616351137799168,-94
599616351145484251,-67
599616351153169280,-123
599616351160854272,-108
599616351168539392,-89
599616351176224384,-96
599616351183909376,-89
599616351191594496,-79
599616351199279488,-79
599616351206964480,-79
599616351214649472,-72
599616351222334592,-67
599616351230019584,-67
599616351237704576,-65
599616351245389696,-60
599616351253074688,-58
599616351260759680,-58
599616351268444800,-53
599616351276129792,-50
599616351283814784,-45
599616351291499904,-41
599616351299184896,-41
599616351306869888,-38
599616351314555008,-38
599616351322240000,-38
599616351329924992,-38
599616351337609984,-38
599616351345295104,-38
599616351352980096,-43
599616351360665088,-48
599616351368350208,-55
599616351376035200,-65
599616351383720192,-77
599616351391405312,-87
599616351399090304,-89
599616351406775296,-91
599616351414460416,-96
599616351422145408,-91
599616351429830400,-89
599616351437515392,-89
599616351445200512,-89
599616351452885504,-89
599616351460570496,-87
599616351468255616,-84
599616351475940608,-84
599616351483625600,-82
599616351491310720,-79
599616351498995712,-79
599616351506680704,-77
599616351514365824,-77
599616351522050816,-77
599616351529735808,-74
599616351537420800,-74
599616351545105920,-72
599616351552790912,-72
599616351560475904,-72
599616351568161024,-72
599616351575846016,-70
599616351583531008,-70
599616351591216128,-72
599616351598901120,-72
599616351606586112,-70
599616351614271232,-70
599616351621956224,-70
599616351629641216,-70
599616351637326336,-67
599616351645011328,-70
599616351652696320,-70
599616351660381312,-70
599616351668066432,-67
599616351675751424,-67
599616351683436416,-67
599616351691121536,-67
599616351698806528,-67
599616351706491560,-67
599616351714177024,-67
599616351721862528,-65
599616351729547904,-67
599616351737233408,-70
599616351744918784,-70
599616351752604288,-67
599616351760289664,-67
599616351767975168,-67
599616351775660672,-67
599616351783346048,-67
599616351791031552,-67
599616351798716928,-67
599616351806402432,-65
599616351814087808,-65
599616351821773312,-67
599616351829458816,-67
599616351837144192,-65
599616351844829696,-65
599616351852515072,-65
599616351860200576,-65
599616351867886080,-72
599616351875571456,-79
599616351883256960,-82
599616351890942336,-89
599616351898627840,-84
599616351906313216,-55
599616351913998720,-31
599616351921684224,-38
599616351929369600,-41
599616351937055104,-43
599616351944740480,-60
599616351952425984,-67
599616351960111360,-60
599616351967796864,-62
599616351975482368,-67
599616351983167744,-62
599616351990853248,-60
599616351998538624,-60
599616352006224128,-62
599616352013909504,-103
599616352021595008,-222
599616352029280512,-285
599616352036965888,-12
599616352044651392,580
599616352052336768,952
599616352060022272,536
599616352067707648,-222
599616352075393152,-398
599616352083078656,-147
599616352090764032,-65
599616352098449536,-123
599616352106134912,-125
599616352113820416,-101
599616352121505920,-101
599616352129191296,-99
599616352136876800,-84
599616352144562176,-79
599616352152247680,-79
599616352159933056,-74
599616352167618560,-70
599616352175304064,-67
599616352182989440,-65
599616352190674944,-60
599616352198360320,-55
599616352206045824,-55
599616352213731200,-53
599616352221416704,-48
599616352229102208,-41
599616352236787584,-38
599616352244473088,-38
599616352252158464,-33
599616352259843968,-26
599616352267529387,-26
599616352275214336,-26
599616352282899328,-26
599616352290584448,-29
599616352298269440,-31
599616352305954432,-31
599616352313639552,-41
599616352321324544,-60
599616352329009536,-72
599616352336694528,-87
599616352344379648,-101
599616352352064640,-106
599616352359749632,-103
599616352367434752,-108
599616352375119744,-111
599616352382804736,-111
599616352390489856,-111
599616352398174848,-103
599616352405859840,-96
599616352413544960,-99
599616352421229952,-99
599616352428914944,-94
599616352436599936,-94
599616352444285056,-91
599616352451970048,-89
599616352459655040,-89
599616352467340160,-87
599616352475025152,-89
599616352482710144,-87
599616352490395264,-84
599616352498080256,-84
599616352505765248,-84
599616352513450368,-84
599616352521135360,-87
599616352528820352,-87
599616352536505472,-87
599616352544190464,-87
599616352551875456,-84
599616352559560448,-84
599616352567245568,-84
599616352574930560,-84
599616352582615552,-87
599616352590300672,-84
599616352597985664,-82
599616352605670656,-84
599616352613355776,-87
599616352621040768,-84
599616352628725760,-79
599616352636410880,-77
599616352644095872,-82
599616352651780864,-82
599616352659465856,-79
599616352667150976,-77
599616352674835968,-77
599616352682520960,-79
599616352690206080,-77
599616352697891072,-77
599616352705576064,-82
599616352713261184,-82
599616352720946176,-79
599616352728631168,-89
599616352736316288,-99
599616352744001280,-82
599616352751686272,-53
599616352759371264,-43
599616352767056384,-50
599616352774741376,-50
599616352782426368,-62
599616352790111488,-79
599616352797796480,-74
599616352805481472,-65
599616352813166592,-70
599616352820851584,-72
599616352828536694,-72
599616352836222208,-72
599616352843907712,-70
599616352851593088,-70
599616352859278592,-106
599616352866963968,-210
599616352874649472,-261
599616352882334848,2
599616352890020352,534
599616352897705856,761
599616352905391232,217
599616352913076736,-480
599616352920762112,-464
599616352928447616,-166
599616352936132992,-120
599616352943818496,-79
599616352951504000,-31
599616352959189376,-77
599616352966874880,-82
599616352974560256,-53
599616352982245760,-62
599616352989931264,-65
599616352997616640,-53
599616353005302144,-50
599616353012987520,-48
599616353020673024,-45
599616353028358400,-43
599616353036043904,-36
599616353043729408,-33
599616353051414784,-33
599616353059100288,-26
599616353066785664,-19
599616353074471168,-12
599616353082156544,-4
599616353089842048,2
599616353097527552,4
599616353105212928,9
599616353112898432,19
599616353120583808,24
599616353128269312,19
599616353135954688,16
599616353143640192,16
599616353151325696,9
599616353159011072,-14
599616353166696576,-53
599616353174381952,-84
599616353182067456,-101
599616353189752832,-113
599616353197438336,-123
599616353205123840,-128
599616353212809216,-125
599616353220494720,-120
599616353228180096,-120
599616353235865600,-120
599616353243550976,-118
599616353251236480,-113
599616353258921984,-106
599616353266607360,-106
599616353274292864,-103
599616353281978240,-99
599616353289663744,-96
599616353297349248,-94
599616353305034624,-96
599616353312720128,-94
599616353320405504,-91
599616353328091008,-89
599616353335776384,-89
599616353343461888,-87
599616353351147392,-87
599616353358832768,-91
599616353366518272,-89
599616353374203648,-87
599616353381889152,-89
599616353389574519,-87
599616353397260160,-84
599616353404945792,-87
599616353412631296,-89
599616353420316928,-89
599616353428002560,-84
599616353435688064,-84
599616353443373696,-84
599616353451059328,-84
599616353458744832,-89
599616353466430464,-89
599616353474116096,-91
599616353481801600,-94
599616353489487232,-94
599616353497172864,-99
599616353504858368,-108
599616353512544000,-96
599616353520229632,-67
599616353527915136,-55
599616353535600768,-62
599616353543286400,-58
599616353550971904,-62
599616353558657536,-79
599616353566343168,-79
599616353574028672,-74
599616353581714304,-74
599616353589399936,-74
599616353597085440,-72
599616353604771072,-72
599616353612456704,-72
599616353620142208,-72
599616353627827840,-87
599616353635513472,-161
599616353643198976,-261
599616353650884608,-137
599616353658570240,297
599616353666255744,662
599616353673941376,401
599616353681627008,-275
599616353689312512,-485
599616353696998144,-224
599616353704683776,-101
599616353712369280,-77
599616353720054912,-38
599616353727740544,-65
599616353735426048,-79
599616353743111680,-53
599616353750797312,-50
599616353758482816,-55
599616353766168448,-48
599616353773854080,-45
599616353781539584,-48
599616353789225216,-41
599616353796910848,-38
599616353804596352,-38
599616353812281984,-36
599616353819967616,-29
599616353827653120,-24
599616353835338752,-19
599616353843024384,-14
599616353850709888,-9
599616353858395520,-2
599616353866081152,2
599616353873766656,7
599616353881452288,14
599616353889137920,16
599616353896823424,16
599616353904509056,14
599616353912194688,9
599616353919880192,-2
599616353927565824,-19
599616353935251328,-45
599616353942936960,-77
599616353950622518,-91
599616353958307328,-101
599616353965992192,-108
599616353973677056,-113
599616353981362048,-113
599616353989046912,-116
599616353996731776,-116
599616354004416640,-111
599616354012101632,-106
599616354019786496,-106
599616354027471360,-101
599616354035156224,-96
599616354042841088,-91
599616354050526080,-91
599616354058210944,-89
599616354065895808,-84
599616354073580672,-82
599616354081265664,-82
599616354088950528,-82
599616354096635392,-74
599616354104320256,-72
599616354112005120,-77
599616354119690112,-74
599616354127374976,-72
599616354135059840,-72
599616354142744704,-74
599616354150429696,-74
599616354158114560,-74
599616354165799424,-74
599616354173484288,-74
599616354181169152,-74
599616354188854144,-74
599616354196539008,-74
599616354204223872,-72
599616354211908736,-67
599616354219593600,-70
599616354227278592,-72
599616354234963456,-72
599616354242648320,-72
599616354250333184,-74
599616354258018176,-79
599616354265703040,-87
599616354273387904,-89
599616354281072768,-74
599616354288757632,-48
599616354296442624,-41
599616354304127488,-41
599616354311812352,-43
599616354319497216,-60
599616354327182208,-70
599616354334867072,-62
599616354342551936,-58
599616354350236800,-60
599616354357921664,-60
599616354365606656,-62
599616354373291520,-65
599616354380976384,-60
599616354388661248,-62
599616354396346240,-106
599616354404031104,-217
599616354411715968,-244
599616354419400832,58
599616354427085696,575
599616354434770688,732
599616354442455552,174
599616354450140416,-415
599616354457825280,-355
599616354465510272,-111
599616354473195136,-77
599616354480880000,-74
599616354488564864,-70
599616354496249728,-87
599616354503934720,-77
599616354511619651,-62
599616354519304704,-65
599616354526989696,-62
599616354534674816,-55
599616354542359808,-55
599616354550044800,-55
599616354557729920,-50
599616354565414912,-50
599616354573099904,-48
599616354580784896,-41
599616354588470016,-38
599616354596155008,-41
599616354603840000,-33
599616354611525120,-26
599616354619210112,-24
599616354626895104,-21
599616354634580224,-16
599616354642265216,-12
599616354649950208,-14
599616354657635328,-16
599616354665320320,-16
599616354673005312,-16
599616354680690304,-21
599616354688375424,-29
599616354696060416,-43
599616354703745408,-62
599616354711430528,-79
599616354719115520,-89
599616354726800512,-94
599616354734485632,-96
599616354742170624,-99
599616354749855616,-99
599616354757540736,-96
599616354765225728,-94
599616354772910720,-94
599616354780595840,-91
599616354788280832,-87
599616354795965824,-84
599616354803650816,-84
599616354811335936,-87
599616354819020928,-84
599616354826705920,-82
599616354834391040,-79
599616354842076032,-79
599616354849761024,-77
599616354857446144,-74
599616354865131136,-72
599616354872816128,-70
599616354880501248,-70
599616354888186240,-72
599616354895871232,-70
599616354903556224,-70
599616354911241344,-72
599616354918926336,-72
599616354926611328,-72
599616354934296448,-70
599616354941981440,-72
599616354949666432,-72
599616354957351552,-72
599616354965036544,-72
599616354972721536,-70
599616354980406656,-70
599616354988091648,-70
599616354995776640,-72
599616355003461632,-72
599616355011146752,-72
599616355018831744,-70
599616355026516736,-70
599616355034201856,-70
599616355041886848,-72
599616355049571840,-72
599616355057256960,-79
599616355064941952,-87
599616355072626958,-91
599616355080312448,-89
599616355087997952,-65
599616355095683328,-43
599616355103368832,-43
599616355111054208,-41
599616355118739712,-38
599616355126425088,-58
599616355134110592,-72
599616355141796096,-62
599616355149481472,-58
599616355157166976,-62
599616355164852352,-60
599616355172537856,-58
599616355180223232,-60
599616355187908736,-60
599616355195594240,-70
599616355203279616,-137
599616355210965120,-261
599616355218650496,-215
599616355226336000,203
599616355234021504,766
599616355241706880,816
599616355249392384,140
599616355257077760,-410
599616355264763264,-287
599616355272448640,-60
599616355280134144,-82
599616355287819648,-120
599616355295505024,-96
599616355303190528,-87
599616355310875904,-91
599616355318561408,-82
599616355326246784,-72
599616355333932288,-74
599616355341617792,-70
599616355349303168,-65
599616355356988672,-62
599616355364674048,-62
599616355372359552,-60
599616355380044928,-55
599616355387730432,-50
599616355395415936,-50
599616355403101312,-48
599616355410786816,-45
599616355418472192,-43
599616355426157696,-38
599616355433843072,-36
599616355441528576,-33
599616355449214080,-31
599616355456899456,-31
599616355464584960,-33
599616355472270336,-36
599616355479955840,-38
599616355487641344,-43
599616355495326720,-48
599616355503012224,-58
599616355510697600,-72
599616355518383104,-82
599616355526068480,-89
599616355533753984,-91
599616355541439488,-94
599616355549124864,-94
599616355556810368,-94
599616355564495744,-94
599616355572181248,-91
599616355579866624,-89
599616355587552128,-87
599616355595237632,-84
599616355602923008,-84
599616355610608512,-82
599616355618293888,-79
599616355625979392,-79
599616355633664787,-77
599616355641349760,-77
599616355649034752,-77
599616355656719872,-74
599616355664404864,-74
599616355672089856,-74
599616355679774976,-72
599616355687459968,-70
599616355695144960,-70
599616355702829952,-74
599616355710515072,-74
599616355718200064,-72
599616355725885056,-72
599616355733570176,-74
599616355741255168,-77
599616355748940160,-72
599616355756625280,-70
599616355764310272,-72
599616355771995264,-72
599616355779680384,-70
599616355787365376,-70
599616355795050368,-70
599616355802735360,-72
599616355810420480,-67
599616355818105472,-67
599616355825790464,-70
599616355833475584,-70
599616355841160576,-67
599616355848845568,-67
599616355856530688,-67
599616355864215680,-67
599616355871900672,-65
599616355879585792,-65
599616355887270784,-65
599616355894955776,-70
599616355902640896,-74
599616355910325888,-84
599616355918010880,-89
599616355925695872,-87
599616355933380992,-67
599616355941065984,-41
599616355948750976,-36
599616355956436096,-36
599616355964121088,-38
599616355971806080,-58
599616355979491200,-70
599616355987176192,-62
599616355994861184,-58
599616356002546304,-62
599616356010231296,-65
599616356017916288,-62
599616356025601280,-62
599616356033286400,-62
599616356040971392,-72
599616356048656384,-147
599616356056341504,-273
599616356064026496,-212
599616356071711488,236
599616356079396608,809
599616356087081600,824
599616356094766592,116
599616356102451712,-427
599616356110136704,-299
599616356117821696,-77
599616356125506688,-84
599616356133191808,-123
599616356140876800,-108
599616356148561792,-96
599616356156246912,-99
599616356163931904,-89
599616356171616896,-79
599616356179302016,-77
599616356186987008,-72
599616356194672094,-67
599616356202357120,-67
599616356210042112,-62
599616356217727232,-60
599616356225412224,-60
599616356233097216,-58
599616356240782336,-48
599616356248467328,-45
599616356256152320,-43
599616356263837312,-36
599616356271522432,-33
599616356279207424,-31
599616356286892416,-26
599616356294577536,-24
599616356302262528,-24
599616356309947520,-26
599616356317632640,-24
599616356325317632,-24
599616356333002624,-26
599616356340687744,-38
599616356348372736,-55
599616356356057728,-70
599616356363742720,-84
599616356371427840,-96
599616356379112832,-103
599616356386797824,-108
599616356394482944,-111
599616356402167936,-111
599616356409852928,-108
599616356417538048,-106
599616356425223040,-103
599616356432908032,-99
599616356440593152,-99
599616356448278144,-99
599616356455963136,-94
599616356463648256,-91
599616356471333248,-91
599616356479018240,-89
599616356486703232,-87
599616356494388352,-84
599616356502073344,-82
599616356509758336,-84
599616356517443456,-84
599616356525128448,-84
599616356532813440,-84
599616356540498560,-82
599616356548183552,-82
599616356555868544,-84
599616356563553664,-82
599616356571238656,-82
599616356578923648,-84
599616356586608640,-87
599616356594293760,-84
599616356601978752,-84
599616356609663744,-84
599616356617348864,-82
599616356625033856,-79
599616356632718848,-82
599616356640403968,-79
599616356648088960,-79
599616356655773952,-82
599616356663459072,-82
599616356671144064,-82
599616356678829056,-77
599616356686514048,-77
599616356694199168,-84
599616356701884160,-89
599616356709569152,-89
599616356717254272,-99
599616356724939264,-99
599616356732624256,-74
599616356740309376,-50
599616356747994368,-48
599616356755679401,-50
599616356763364864,-60
599616356771050368,-74
599616356778735744,-77
599616356786421248,-74
599616356794106624,-77
599616356801792128,-74
599616356809477504,-74
599616356817163008,-77
599616356824848512,-77
599616356832533888,-72
599616356840219392,-87
599616356847904768,-169
599616356855590272,-277
599616356863275648,-152
599616356870961152,323
599616356878646656,756
599616356886332032,514
599616356894017536,-253
599616356901702912,-548
599616356909388416,-268
599616356917073920,-120
599616356924759296,-99
599616356932444800,-41
599616356940130176,-62
599616356947815680,-94
599616356955501056,-62
599616356963186560,-53
599616356970872064,-65
599616356978557440,-58
599616356986242944,-50
599616356993928320,-53
599616357001613824,-48
599616357009299200,-41
599616357016984704,-45
599616357024670208,-45
599616357032355584,-33
599616357040041088,-26
599616357047726464,-24
599616357055411968,-19
599616357063097344,-12
599616357070782848,-7
599616357078468352,0
599616357086153728,4
599616357093839232,9
599616357101524608,16
599616357109210112,19
599616357116895488,12
599616357124580992,12
599616357132266496,9
599616357139951872,-12
599616357147637376,-43
599616357155322752,-72
599616357163008256,-99
599616357170693632,-111
599616357178379136,-118
599616357186064640,-128
599616357193750016,-128
599616357201435520,-125
599616357209120896,-123
599616357216806400,-120
599616357224491904,-118
599616357232177280,-116
599616357239862784,-108
599616357247548160,-103
599616357255233664,-106
599616357262919040,-103
599616357270604544,-96
599616357278290048,-94
599616357285975424,-91
599616357293660928,-91
599616357301346304,-89
599616357309031808,-87
599616357316717226,-89
599616357324402176,-94
599616357332087168,-89
599616357339772288,-87
599616357347457280,-87
599616357355142272,-84
599616357362827392,-87
599616357370512384,-91
599616357378197376,-91
599616357385882368,-91
599616357393567488,-89
599616357401252480,-87
599616357408937472,-89
599616357416622592,-89
599616357424307584,-87
599616357431992576,-87
599616357439677696,-87
599616357447362688,-91
599616357455047680,-99
599616357462732800,-99
599616357470417792,-101
599616357478102784,-96
599616357485787776,-72
599616357493472896,-55
599616357501157888,-58
599616357508842880,-58
599616357516528000,-70
599616357524212992,-94
599616357531897984,-91
599616357539583104,-77
599616357547268096,-77
599616357554953088,-79
599616357562638208,-77
599616357570323200,-77
599616357578008192,-79
599616357585693312,-79
599616357593378304,-96
599616357601063296,-188
599616357608748288,-273
599616357616433408,-91
599616357624118400,384
599616357631803392,698
599616357639488512,321
599616357647173504,-367
599616357654858496,-471
599616357662543616,-193
599616357670228608,-106
599616357677913600,-79
599616357685598720,-43
599616357693283712,-74
599616357700968704,-82
599616357708653696,-58
599616357716338816,-58
599616357724023808,-62
599616357731708800,-55
599616357739393920,-55
599616357747078912,-55
599616357754763904,-48
599616357762449024,-41
599616357770134016,-41
599616357777819008,-41
599616357785504128,-33
599616357793189120,-29
599616357800874112,-26
599616357808559104,-19
599616357816244224,-12
599616357823929216,-7
599616357831614208,-2
599616357839299328,2
599616357846984320,7
599616357854669312,7
599616357862354432,2
599616357870039424,4
599616357877724533,4
599616357885410048,-9
599616357893095552,-33
599616357900780928,-55
599616357908466432,-77
599616357916151808,-101
599616357923837312,-113
599616357931522688,-116
599616357939208192,-116
599616357946893696,-116
599616357954579072,-113
599616357962264576,-111
599616357969949952,-108
599616357977635456,-106
599616357985320832,-103
599616357993006336,-99
599616358000691840,-99
599616358008377216,-94
599616358016062720,-91
599616358023748096,-94
599616358031433600,-94
599616358039119104,-87
599616358046804480,-84
599616358054489984,-87
599616358062175360,-82
599616358069860864,-77
599616358077546240,-82
599616358085231744,-84
599616358092917248,-82
599616358100602624,-82
599616358108288128,-79
599616358115973504,-79
599616358123659008,-79
599616358131344384,-79
599616358139029888,-74
599616358146715392,-74
599616358154400768,-77
599616358162086272,-79
599616358169771648,-77
599616358177457152,-72
599616358185142528,-74
599616358192828032,-82
599616358200513536,-89
599616358208198912,-91
599616358215884416,-89
599616358223569792,-74
599616358231255296,-53
599616358238940672,-50
599616358246626176,-48
599616358254311680,-48
599616358261997056,-65
599616358269682560,-74
599616358277367936,-67
599616358285053440,-65
599616358292738816,-67
599616358300424320,-67
599616358308109824,-65
599616358315795200,-65
599616358323480704,-62
599616358331166080,-67
599616358338851584,-125
599616358346537088,-239
599616358354222464,-212
599616358361907968,154
599616358369593344,645
599616358377278848,650
599616358384964224,7
599616358392649728,-461
599616358400335232,-299
599616358408020608,-87
599616358415706112,-79
599616358423391488,-70
599616358431076992,-62
599616358438762358,-79
599616358446447360,-67
599616358454132352,-55
599616358461817472,-60
599616358469502464,-60
599616358477187456,-55
599616358484872576,-50
599616358492557568,-48
599616358500242560,-48
599616358507927552,-43
599616358515612672,-41
599616358523297664,-41
599616358530982656,-38
599616358538667776,-33
599616358546352768,-29
599616358554037760,-24
599616358561722880,-24
599616358569407872,-19
599616358577092864,-14
599616358584777984,-12
599616358592462976,-12
599616358600147968,-9
599616358607833088,-12
599616358615518080,-16
599616358623203072,-21
599616358630888064,-31
599616358638573184,-50
599616358646258176,-70
599616358653943168,-84
599616358661628288,-91
599616358669313280,-96
599616358676998272,-99
599616358684683392,-99
599616358692368384,-96
599616358700053376,-99
599616358707738496,-96
599616358715423488,-91
599616358723108480,-87
599616358730793472,-87
599616358738478592,-89
599616358746163584,-87
599616358753848576,-82
599616358761533696,-79
599616358769218688,-79
599616358776903680,-77
599616358784588800,-77
599616358792273792,-77
599616358799958784,-74
599616358807643904,-72
599616358815328896,-72
599616358823013888,-72
599616358830698880,-72
599616358838384000,-72
599616358846068992,-70
599616358853753984,-72
599616358861439104,-74
599616358869124096,-74
599616358876809088,-72
599616358884494208,-74
599616358892179200,-72
599616358899864192,-72
599616358907549312,-72
599616358915234304,-72
599616358922919296,-70
599616358930604416,-72
599616358938289408,-72
599616358945974400,-72
599616358953659392,-74
599616358961344512,-77
599616358969029504,-82
599616358976714496,-91
599616358984399616,-94
599616358992084608,-84
599616358999769669,-60
599616359007454720,-48
599616359015139712,-43
599616359022824832,-41
599616359030509824,-55
599616359038194816,-74
599616359045879936,-72
599616359053564928,-65
599616359061249920,-67
599616359068934912,-70
599616359076620032,-65
599616359084305024,-65
599616359091990016,-67
599616359099675136,-70
599616359107360128,-96
599616359115045120,-200
599616359122730240,-285
599616359130415232,-72
599616359138100224,468
599616359145785344,858
599616359153470336,512
599616359161155328,-234
599616359168840320,-432
599616359176525440,-157
599616359184210432,-55
599616359191895424,-111
599616359199580544,-113
599616359207265536,-91
599616359214950528,-91
599616359222635648,-89
599616359230320640,-77
599616359238005632,-74
599616359245690752,-74
599616359253375744,-70
599616359261060736,-65
599616359268745856,-62
599616359276430848,-60
599616359284115840,-58
599616359291800832,-55
599616359299485952,-55
599616359307170944,-53
599616359314855936,-48
599616359322541056,-45
599616359330226048,-43
599616359337911040,-43
599616359345596160,-41
599616359353281152,-38
599616359360966144,-38
599616359368651264,-41
599616359376336256,-41
599616359384021248,-43
599616359391706240,-45
599616359399391360,-53
599616359407076352,-58
599616359414761344,-67
599616359422446464,-79
599616359430131456,-84
599616359437816448,-89
599616359445501568,-91
599616359453186560,-94
599616359460871552,-94
599616359468556672,-91
599616359476241664,-91
599616359483926656,-91
599616359491611648,-89
599616359499296768,-84
599616359506981760,-82
599616359514666752,-82
599616359522351872,-82
599616359530036864,-82
599616359537721856,-84
599616359545406976,-82
599616359553091968,-79
599616359560776976,-79
599616359568462464,-79
599616359576147968,-77
599616359583833344,-77
599616359591518848,-74
599616359599204224,-74
599616359606889728,-74
599616359614575104,-74
599616359622260608,-74
599616359629946112,-74
599616359637631488,-77
599616359645316992,-77
599616359653002368,-72
599616359660687872,-74
599616359668373248,-74
599616359676058752,-74
599616359683744256,-72
599616359691429632,-72
599616359699115136,-70
599616359706800512,-70
599616359714486016,-72
599616359722171520,-72
599616359729856896,-70
599616359737542400,-67
599616359745227776,-67
599616359752913280,-70
599616359760598656,-72
599616359768284160,-70
599616359775969664,-70
599616359783655040,-74
599616359791340544,-84
599616359799025920,-91
599616359806711424,-94
599616359814396800,-82
599616359822082304,-53
599616359829767808,-41
599616359837453184,-41
599616359845138688,-38
599616359852824064,-50
599616359860509568,-70
599616359868194944,-70
599616359875880448,-60
599616359883565952,-62
599616359891251328,-62
599616359898936832,-65
599616359906622208,-65
599616359914307712,-65
599616359921993088,-65
599616359929678592,-101
599616359937364096,-219
599616359945049472,-282
599616359952734976,-12
599616359960420352,572
599616359968105856,937
599616359975791232,509
599616359983476736,-244
599616359991162240,-403
599616359998847616,-142
599616360006533120,-62
599616360014218496,-128
599616360021904000,-130
599616360029589504,-101
599616360037274880,-103
599616360044960384,-106
599616360052645760,-94
599616360060331264,-87
599616360068016640,-87
599616360075702144,-82
599616360083387648,-74
599616360091073024,-72
599616360098758528,-70
599616360106443904,-67
599616360114129408,-62
599616360121814801,-60
599616360129499776,-58
599616360137184768,-53
599616360144869888,-50
599616360152554880,-43
599616360160239872,-38
599616360167924992,-38
599616360175609984,-41
599616360183294976,-41
599616360190979968,-36
599616360198665088,-33
599616360206350080,-36
599616360214035072,-38
599616360221720192,-43
599616360229405184,-55
599616360237090176,-70
599616360244775296,-84
599616360252460288,-94
599616360260145280,-101
599616360267830400,-108
599616360275515392,-108
599616360283200384,-108
599616360290885376,-108
599616360298570496,-108
599616360306255488,-103
599616360313940480,-101
599616360321625600,-101
599616360329310592,-96
599616360336995584,-91
599616360344680704,-91
599616360352365696,-94
599616360360050688,-89
599616360367735808,-84
599616360375420800,-84
599616360383105792,-84
599616360390790912,-84
599616360398475904,-84
599616360406160896,-82
599616360413845888,-84
599616360421531008,-84
599616360429216000,-82
599616360436900992,-84
599616360444586112,-87
599616360452271104,-84
599616360459956096,-84
599616360467641216,-87
599616360475326208,-84
599616360483011200,-84
599616360490696320,-84
599616360498381312,-84
599616360506066304,-84
599616360513751296,-82
599616360521436416,-82
599616360529121408,-82
599616360536806400,-84
599616360544491520,-87
599616360552176512,-84
599616360559861504,-84
599616360567546624,-87
599616360575231616,-84
599616360582916608,-87
599616360590601728,-91
599616360598286720,-99
599616360605971712,-101
599616360613656704,-89
599616360621341824,-65
599616360629026816,-53
599616360636711808,-55
599616360644396928,-55
599616360652081920,-67
599616360659766912,-82
599616360667452032,-79
599616360675137024,-74
599616360682822108,-77
599616360690507648,-79
599616360698193152,-74
599616360705878528,-72
599616360713564032,-72
599616360721249408,-77
599616360728934912,-125
599616360736620288,-239
599616360744305792,-251
599616360751991296,89
599616360759676672,623
599616360767362176,722
599616360775047552,72
599616360782733056,-526
599616360790418432,-401
599616360798103936,-140
599616360805789440,-111
599616360813474816,-67
599616360821160320,-48
599616360828845696,-89
599616360836531200,-79
599616360844216704,-58
599616360851902080,-67
599616360859587584,-67
599616360867272960,-55
599616360874958464,-53
599616360882643840,-53
599616360890329344,-48
599616360898014848,-45
599616360905700224,-41
599616360913385728,-38
599616360921071104,-33
599616360928756608,-29
599616360936441984,-24
599616360944127488,-19
599616360951812992,-14
599616360959498368,-7
599616360967183872,0
599616360974869248,2
599616360982554752,4
599616360990240128,9
599616360997925632,9
599616361005611136,4
599616361013296512,2
599616361020982016,-9
599616361028667392,-38
599616361036352896,-70
599616361044038272,-91
599616361051723776,-108
599616361059409280,-123
599616361067094656,-125
599616361074780160,-130
599616361082465536,-130
599616361090151040,-123
599616361097836416,-123
599616361105521920,-123
599616361113207424,-116
599616361120892800,-111
599616361128578304,-111
599616361136263680,-108
599616361143949184,-103
599616361151634688,-101
599616361159320064,-96
599616361167005568,-94
599616361174690944,-96
599616361182376448,-96
599616361190061824,-91
599616361197747328,-87
599616361205432832,-87
599616361213118208,-91
599616361220803712,-91
599616361228489088,-89
599616361236174592,-91
599616361243859933,-89
599616361251544960,-87
599616361259229952,-87
599616361266915072,-89
599616361274600064,-94
599616361282285056,-94
599616361289970176,-94
599616361297655168,-89
599616361305340160,-84
599616361313025152,-89
599616361320710272,-89
599616361328395264,-84
599616361336080256,-91
599616361343765376,-96
599616361351450368,-99
599616361359135360,-99
599616361366820480,-99
599616361374505472,-79
599616361382190464,-60
599616361389875584,-60
599616361397560576,-58
599616361405245568,-60
599616361412930560,-79
599616361420615680,-87
599616361428300672,-77
599616361435985664,-72
599616361443670784,-77
599616361451355776,-79
599616361459040768,-74
599616361466725888,-72
599616361474410880,-74
599616361482095872,-87
599616361489780992,-164
599616361497465984,-258
599616361505150976,-128
599616361512836096,316
599616361520521088,684
599616361528206080,403
599616361535891072,-287
599616361543576192,-480
599616361551261184,-215
599616361558946176,-99
599616361566631296,-84
599616361574316288,-50
599616361582001280,-74
599616361589686400,-82
599616361597371392,-58
599616361605056384,-60
599616361612741504,-65
599616361620426496,-55
599616361628111488,-50
599616361635796480,-50
599616361643481600,-45
599616361651166592,-45
599616361658851584,-43
599616361666536704,-38
599616361674221696,-36
599616361681906688,-33
599616361689591808,-26
599616361697276800,-21
599616361704961792,-19
599616361712646912,-12
599616361720331904,-7
599616361728016896,-4
599616361735701888,2
599616361743387008,2
599616361751072000,0
599616361758756992,0
599616361766442112,-2
599616361774127104,-12
599616361781812096,-31
599616361789497216,-55
599616361797182208,-77
599616361804867240,-94
599616361812552192,-101
599616361820237184,-106
599616361827922304,-111
599616361835607296,-113
599616361843292288,-108
599616361850977408,-106
599616361858662400,-108
599616361866347392,-106
599616361874032384,-99
599616361881717504,-99
599616361889402496,-96
599616361897087488,-91
599616361904772608,-87
599616361912457600,-87
599616361920142592,-87
599616361927827712,-84
599616361935512704,-82
599616361943197696,-79
599616361950882816,-79
599616361958567808,-79
599616361966252800,-79
599616361973937920,-77
599616361981622912,-77
599616361989307904,-77
599616361996992896,-77
599616362004678016,-79
599616362012363008,-79
599616362020048000,-77
599616362027733120,-77
599616362035418112,-77
599616362043103104,-74
599616362050788224,-77
599616362058473216,-79
599616362066158208,-82
599616362073843328,-79
599616362081528320,-77
599616362089213312,-82
599616362096898304,-89
599616362104583424,-94
599616362112268416,-94
599616362119953408,-79
599616362127638528,-58
599616362135323520,-50
599616362143008512,-45
599616362150693632,-48
599616362158378624,-70
599616362166063616,-77
599616362173748736,-67
599616362181433728,-65
599616362189118720,-70
599616362196803712,-67
599616362204488832,-65
599616362212173824,-67
599616362219858816,-65
599616362227543936,-67
599616362235228928,-123
599616362242913920,-236
599616362250599040,-212
599616362258284032,152
599616362265969024,638
599616362273654144,640
599616362281339136,-9
599616362289024128,-478
599616362296709248,-302
599616362304394240,-82
599616362312079232,-74
599616362319764224,-65
599616362327449344,-65
599616362335134336,-79
599616362342819328,-65
599616362350504448,-53
599616362358189440,-62
599616362365874551,-60
599616362373560064,-53
599616362381245568,-50
599616362388930944,-48
599616362396616448,-45
599616362404301824,-45
599616362411987328,-43
599616362419672704,-41
599616362427358208,-38
599616362435043712,-33
599616362442729088,-31
599616362450414592,-29
599616362458099968,-26
599616362465785472,-21
599616362473470848,-16
599616362481156352,-16
599616362488841856,-16
599616362496527232,-14
599616362504212736,-16
599616362511898112,-21
599616362519583616,-26
599616362527269120,-36
599616362534954496,-53
599616362542640000,-72
599616362550325376,-87
599616362558010880,-94
599616362565696256,-101
599616362573381760,-106
599616362581067264,-103
599616362588752640,-103
599616362596438144,-103
599616362604123520,-101
599616362611809024,-99
599616362619494400,-94
599616362627179904,-94
599616362634865408,-94
599616362642550784,-89
599616362650236288,-87
599616362657921664,-84
599616362665607168,-84
599616362673292544,-84
599616362680978048,-79
599616362688663552,-77
599616362696348928,-77
599616362704034432,-77
599616362711719808,-77
599616362719405312,-77
599616362727090688,-77
599616362734776192,-77
599616362742461696,-77
599616362750147072,-77
599616362757832576,-77
599616362765517952,-74
599616362773203456,-77
599616362780888832,-77
599616362788574336,-77
599616362796259840,-77
599616362803945216,-77
599616362811630720,-77
599616362819316096,-74
599616362827001600,-74
599616362834687104,-72
599616362842372480,-72
599616362850057984,-74
599616362857743360,-74
599616362865428864,-70
599616362873114240,-72
599616362880799744,-74
599616362888485248,-77
599616362896170624,-84
599616362903856128,-94
599616362911541504,-94
599616362919227008,-87
599616362926912376,-65
599616362934597376,-48
599616362942282368,-48
599616362949967488,-43
599616362957652480,-48
599616362965337472,-70
599616362973022592,-74
599616362980707584,-65
599616362988392576,-67
599616362996077568,-72
599616363003762688,-70
599616363011447680,-67
599616363019132672,-67
599616363026817792,-70
599616363034502784,-91
599616363042187776,-190
599616363049872896,-285
599616363057557888,-103
599616363065242880,430
599616363072928000,865
599616363080612992,570
599616363088297984,-186
599616363095982976,-439
599616363103668096,-176
599616363111353088,-55
599616363119038080,-113
599616363126723200,-120
599616363134408192,-94
599616363142093184,-94
599616363149778304,-94
599616363157463296,-82
599616363165148288,-77
599616363172833408,-79
599616363180518400,-74
599616363188203392,-67
599616363195888512,-67
599616363203573504,-65
599616363211258496,-60
599616363218943488,-60
599616363226628608,-55
599616363234313600,-53
599616363241998592,-50
599616363249683712,-48
599616363257368704,-48
599616363265053696,-45
599616363272738816,-45
599616363280423808,-45
599616363288108800,-43
599616363295793920,-43
599616363303478912,-45
599616363311163904,-48
599616363318848896,-50
599616363326534016,-55
599616363334219008,-58
599616363341904000,-65
599616363349589120,-74
599616363357274112,-84
599616363364959104,-87
599616363372644224,-89
599616363380329216,-91
599616363388014208,-91
599616363395699328,-91
599616363403384320,-89
599616363411069312,-89
599616363418754304,-87
599616363426439424,-82
599616363434124416,-82
599616363441809408,-82
599616363449494528,-82
599616363457179520,-77
599616363464864512,-77
599616363472549632,-77
599616363480234624,-77
599616363487919683,-74
599616363495605248,-74
599616363503290752,-72
599616363510976128,-72
599616363518661632,-70
599616363526347008,-70
599616363534032512,-72
599616363541717888,-72
599616363549403392,-72
599616363557088896,-72
599616363564774272,-72
599616363572459776,-74
599616363580145152,-77
599616363587830656,-79
599616363595516032,-77
599616363603201536,-77
599616363610887040,-74
599616363618572416,-74
599616363626257920,-74
599616363633943296,-74
599616363641628800,-74
599616363649314304,-74
599616363656999680,-74
599616363664685184,-72
599616363672370560,-72
599616363680056064,-74
599616363687741440,-72
599616363695426944,-72
599616363703112448,-70
599616363710797824,-72
599616363718483328,-79
599616363726168704,-87
599616363733854208,-91
599616363741539584,-96
599616363749225088,-82
599616363756910592,-53
599616363764595968,-43
599616363772281472,-43
599616363779966848,-38
599616363787652352,-50
599616363795337728,-70
599616363803023232,-70
599616363810708736,-60
599616363818394112,-62
599616363826079616,-65
599616363833764992,-62
599616363841450496,-62
599616363849135872,-62
599616363856821376,-70
599616363864506880,-120
599616363872192256,-246
599616363879877760,-263
599616363887563136,91
599616363895248640,696
599616363902934016,923
599616363910619520,350
599616363918305024,-335
599616363925990400,-360
599616363933675904,-106
599616363941361280,-74
599616363949046784,-128
599616363956732288,-120
599616363964417664,-99
599616363972103168,-99
599616363979788544,-94
599616363987474048,-84
599616363995159424,-82
599616364002844928,-77
599616364010530432,-72
599616364018215808,-72
599616364025901312,-67
599616364033586688,-65
599616364041272192,-62
599616364048957508,-60
599616364056642560,-55
599616364064327552,-50
599616364072012672,-53
599616364079697664,-53
599616364087382656,-48
599616364095067776,-43
599616364102752768,-45
599616364110437760,-43
599616364118122752,-43
599616364125807872,-45
599616364133492864,-48
599616364141177856,-50
599616364148862976,-50
599616364156547968,-55
599616364164232960,-65
599616364171918080,-77
599616364179603072,-87
599616364187288064,-96
599616364194973184,-101
599616364202658176,-103
599616364210343168,-103
599616364218028160,-103
599616364225713280,-103
599616364233398272,-101
599616364241083264,-96
599616364248768384,-96
599616364256453376,-96
599616364264138368,-91
599616364271823488,-87
599616364279508480,-89
599616364287193472,-91
599616364294878592,-87
599616364302563584,-79
599616364310248576,-79
599616364317933696,-84
599616364325618688,-84
599616364333303680,-82
599616364340988672,-79
599616364348673792,-79
599616364356358784,-77
599616364364043776,-77
599616364371728896,-79
599616364379413888,-82
599616364387098880,-79
599616364394784000,-79
599616364402468992,-79
599616364410153984,-79
599616364417839104,-82
599616364425524096,-82
599616364433209088,-79
599616364440894080,-79
599616364448579200,-79
599616364456264192,-79
599616364463949184,-82
599616364471634304,-82
599616364479319296,-77
599616364487004288,-79
599616364494689408,-79
599616364502374400,-77
599616364510059392,-74
599616364517744512,-79
599616364525429504,-82
599616364533114496,-77
599616364540799488,-77
599616364548484608,-87
599616364556169600,-91
599616364563854592,-94
599616364571539712,-96
599616364579224704,-77
599616364586909696,-55
599616364594594816,-50
599616364602279808,-50
599616364609964815,-60
599616364617650304,-79
599616364625335808,-84
599616364633021184,-74
599616364640706688,-72
599616364648392064,-74
599616364656077568,-74
599616364663762944,-72
599616364671448448,-77
599616364679133952,-79
599616364686819328,-101
599616364694504832,-200
599616364702190208,-277
599616364709875712,-55
599616364717561088,478
599616364725246592,809
599616364732932096,374
599616364740617472,-391
599616364748302976,-507
599616364755988352,-198
599616364763673856,-106
599616364771359360,-87
599616364779044736,-53
599616364786730240,-87
599616364794415616,-89
599616364802101120,-60
599616364809786496,-65
599616364817472000,-70
599616364825157504,-60
599616364832842880,-58
599616364840528384,-55
599616364848213760,-50
599616364855899264,-50
599616364863584640,-43
599616364871270144,-38
599616364878955648,-38
599616364886641024,-33
599616364894326528,-26
599616364902011904,-19
599616364909697408,-16
599616364917382784,-14
599616364925068288,-7
599616364932753792,0
599616364940439168,2
599616364948124672,4
599616364955810048,4
599616364963495552,4
599616364971180928,2
599616364978866432,-4
599616364986551936,-21
599616364994237312,-50
599616365001922816,-79
599616365009608192,-99
599616365017293696,-111
599616365024979072,-118
599616365032664576,-125
599616365040350080,-130
599616365048035456,-123
599616365055720960,-120
599616365063406336,-120
599616365071091840,-113
599616365078777344,-111
599616365086462720,-116
599616365094148224,-113
599616365101833600,-108
599616365109519104,-103
599616365117204480,-96
599616365124889984,-96
599616365132575488,-101
599616365140260864,-94
599616365147946368,-91
599616365155631744,-91
599616365163317248,-91
599616365171002640,-91
599616365178687616,-91
599616365186372608,-89
599616365194057728,-94
599616365201742720,-94
599616365209427712,-91
599616365217112832,-91
599616365224797824,-94
599616365232482816,-96
599616365240167808,-91
599616365247852928,-89
599616365255537920,-91
599616365263222912,-89
599616365270908032,-87
599616365278593024,-89
599616365286278016,-91
599616365293963136,-91
599616365301648128,-96
599616365309333120,-103
599616365317018240,-106
599616365324703232,-101
599616365332388224,-84
599616365340073344,-65
599616365347758336,-62
599616365355443328,-62
599616365363128320,-67
599616365370813440,-84
599616365378498432,-89
599616365386183424,-82
599616365393868544,-79
599616365401553536,-82
599616365409238528,-82
599616365416923648,-79
599616365424608640,-79
599616365432293632,-82
599616365439978752,-91
599616365447663744,-166
599616365455348736,-268
599616365463033728,-149
599616365470718848,302
599616365478403840,700
599616365486088832,444
599616365493773952,-280
599616365501458944,-519
599616365509143936,-248
599616365516829056,-120
599616365524514048,-94
599616365532199040,-36
599616365539884160,-65
599616365547569152,-84
599616365555254144,-53
599616365562939136,-53
599616365570624256,-62
599616365578309248,-50
599616365585994240,-53
599616365593679360,-60
599616365601364352,-48
599616365609049344,-38
599616365616734464,-41
599616365624419456,-38
599616365632104448,-29
599616365639789568,-24
599616365647474560,-24
599616365655159552,-16
599616365662844672,-9
599616365670529664,-4
599616365678214656,2
599616365685899648,9
599616365693584768,12
599616365701269760,14
599616365708954752,19
599616365716639872,16
599616365724324864,9
599616365732009951,2
599616365739694976,-14
599616365747379968,-48
599616365755065088,-82
599616365762750080,-94
599616365770435072,-101
599616365778120192,-116
599616365785805184,-118
599616365793490176,-113
599616365801175168,-113
599616365808860288,-113
599616365816545280,-113
599616365824230272,-108
599616365831915392,-101
599616365839600384,-101
599616365847285376,-96
599616365854970496,-91
599616365862655488,-94
599616365870340480,-91
599616365878025600,-87
599616365885710592,-84
599616365893395584,-84
599616365901080576,-82
599616365908765696,-79
599616365916450688,-79
599616365924135680,-79
599616365931820800,-79
599616365939505792,-84
599616365947190784,-82
599616365954875904,-77
599616365962560896,-77
599616365970245888,-82
599616365977931008,-79
599616365985616000,-77
599616365993300992,-79
599616366000986112,-79
599616366008671104,-77
599616366016356096,-77
599616366024041088,-79
599616366031726208,-82
599616366039411200,-82
599616366047096192,-89
599616366054781312,-94
599616366062466304,-79
599616366070151296,-53
599616366077836416,-48
599616366085521408,-50
599616366093206400,-48
599616366100891520,-65
599616366108576512,-77
599616366116261504,-70
599616366123946496,-65
599616366131631616,-70
599616366139316608,-70
599616366147001600,-67
599616366154686720,-65
599616366162371712,-65
599616366170056704,-70
599616366177741824,-108
599616366185426816,-217
599616366193111808,-246
599616366200796928,58
599616366208481920,580
599616366216166912,729
599616366223851904,154
599616366231537024,-451
599616366239222016,-379
599616366246907008,-120
599616366254592128,-87
599616366262277120,-67
599616366269962112,-55
599616366277647232,-79
599616366285332224,-70
599616366293017258,-53
599616366300702720,-60
599616366308388224,-60
599616366316073600,-50
599616366323759104,-48
599616366331444480,-48
599616366339129984,-43
599616366346815360,-43
599616366354500864,-43
599616366362186368,-41
599616366369871744,-36
599616366377557248,-33
599616366385242624,-29
599616366392928128,-24
599616366400613504,-21
599616366408299008,-19
599616366415984512,-12
599616366423669888,-7
599616366431355392,-9
599616366439040768,-9
599616366446726272,-9
599616366454411776,-12
599616366462097152,-16
599616366469782656,-26
599616366477468032,-45
599616366485153536,-67
599616366492838912,-82
599616366500524416,-91
599616366508209920,-99
599616366515895296,-99
599616366523580800,-96
599616366531266176,-99
599616366538951680,-101
599616366546637056,-96
599616366554322560,-91
599616366562008064,-91
599616366569693440,-91
599616366577378944,-87
599616366585064320,-82
599616366592749824,-79
599616366600435200,-84
599616366608120704,-87
599616366615806208,-84
599616366623491584,-82
599616366631177088,-82
599616366638862464,-77
599616366646547968,-74
599616366654233344,-74
599616366661918848,-74
599616366669604352,-74
599616366677289728,-74
599616366684975232,-74
599616366692660608,-74
599616366700346112,-77
599616366708031488,-79
599616366715716992,-77
599616366723402496,-77
599616366731087872,-77
599616366738773376,-74
599616366746458752,-74
599616366754144256,-77
599616366761829760,-74
599616366769515136,-74
599616366777200640,-72
599616366784886016,-74
599616366792571520,-82
599616366800256896,-87
599616366807942400,-94
599616366815627904,-99
599616366823313280,-82
599616366830998784,-55
599616366838684160,-48
599616366846369664,-45
599616366854055083,-43
599616366861740032,-62
599616366869425024,-74
599616366877110144,-67
599616366884795136,-62
599616366892480128,-67
599616366900165248,-67
599616366907850240,-65
599616366915535232,-67
599616366923220224,-67
599616366930905344,-72
599616366938590336,-130
599616366946275328,-251
599616366953960448,-241
599616366961645440,130
599616366969330432,691
599616366977015552,819
599616366984700544,195
599616366992385536,-415
599616367000070656,-343
599616367007755648,-79
599616367015440640,-67
599616367023125632,-118
599616367030810752,-103
599616367038495744,-87
599616367046180736,-91
599616367053865856,-87
599616367061550848,-77
599616367069235840,-74
599616367076920960,-72
599616367084605952,-67
599616367092290944,-65
599616367099976064,-62
599616367107661056,-62
599616367115346048,-60
599616367123031168,-58
599616367130716160,-55
599616367138401152,-50
599616367146086144,-45
599616367153771264,-43
599616367161456256,-41
599616367169141248,-36
599616367176826368,-36
599616367184511360,-38
599616367192196352,-36
599616367199881472,-38
599616367207566464,-41
599616367215251456,-45
599616367222936576,-48
599616367230621568,-55
599616367238306560,-67
599616367245991552,-82
599616367253676672,-94
599616367261361664,-99
599616367269046656,-103
599616367276731776,-108
599616367284416768,-108
599616367292101760,-106
599616367299786880,-106
599616367307471872,-101
599616367315156864,-96
599616367322841984,-96
599616367330526976,-94
599616367338211968,-91
599616367345896960,-87
599616367353582080,-84
599616367361267072,-84
599616367368952064,-84
599616367376637184,-84
599616367384322176,-79
599616367392007168,-79
599616367399692288,-79
599616367407377280,-79
599616367415062390,-79
599616367422747392,-77
599616367430432384,-74
599616367438117504,-74
599616367445802496,-74
599616367453487488,-74
599616367461172608,-74
599616367468857600,-79
599616367476542592,-77
599616367484227584,-74
599616367491912704,-77
599616367499597696,-77
599616367507282688,-72
599616367514967808,-70
599616367522652800,-72
599616367530337792,-74
599616367538022912,-74
599616367545707904,-70
599616367553392896,-72
599616367561078016,-72
599616367568763008,-72
599616367576448000,-72
599616367584132992,-74
599616367591818112,-87
599616367599503104,-94
599616367607188096,-99
599616367614873216,-94
599616367622558208,-67
599616367630243200,-45
599616367637928320,-43
599616367645613312,-41
599616367653298304,-48
599616367660983424,-67
599616367668668416,-72
599616367676353408,-65
599616367684038528,-62
599616367691723520,-67
599616367699408512,-65
599616367707093504,-65
599616367714778624,-65
599616367722463616,-62
599616367730148608,-94
599616367737833728,-205
599616367745518720,-287
599616367753203712,-60
599616367760888832,505
599616367768573824,906
599616367776258816,553
599616367783943936,-210
599616367791628928,-435
599616367799313920,-174
599616367806998912,-53
599616367814684032,-106
599616367822369024,-120
599616367830054016,-94
599616367837739136,-91
599616367845424128,-91
599616367853109120,-79
599616367860794240,-74
599616367868479232,-72
599616367876164224,-67
599616367883849344,-65
599616367891534336,-62
599616367899219328,-60
599616367906904320,-55
599616367914589440,-50
599616367922274432,-45
599616367929959424,-43
599616367937644544,-41
599616367945329536,-36
599616367953014528,-29
599616367960699648,-26
599616367968384640,-26
599616367976069697,-21
599616367983755264,-19
599616367991440768,-19
599616367999126144,-19
599616368006811648,-21
599616368014497024,-26
599616368022182528,-29
599616368029867904,-43
599616368037553408,-70
599616368045238912,-89
599616368052924288,-96
599616368060609792,-106
599616368068295168,-111
599616368075980672,-113
599616368083666048,-116
599616368091351552,-111
599616368099037056,-106
599616368106722432,-108
599616368114407936,-108
599616368122093312,-103
599616368129778816,-101
599616368137464320,-101
599616368145149696,-96
599616368152835200,-94
599616368160520576,-91
599616368168206080,-91
599616368175891456,-87
599616368183576960,-87
599616368191262464,-87
599616368198947840,-84
599616368206633344,-82
599616368214318720,-82
599616368222004224,-87
599616368229689600,-84
599616368237375104,-79
599616368245060608,-82
599616368252745984,-87
599616368260431488,-82
599616368268116864,-79
599616368275802368,-82
599616368283487744,-82
599616368291173248,-82
599616368298858752,-84
599616368306544128,-84
599616368314229632,-82
599616368321915008,-82
599616368329600512,-79
599616368337285888,-77
599616368344971392,-74
599616368352656896,-77
599616368360342272,-79
599616368368027776,-77
599616368375713152,-77
599616368383398656,-84
599616368391084032,-91
599616368398769536,-91
599616368406455040,-94
599616368414140416,-87
599616368421825920,-60
599616368429511296,-45
599616368437196800,-48
599616368444882304,-53
599616368452567680,-65
599616368460253184,-77
599616368467938560,-77
599616368475624064,-72
599616368483309440,-70
599616368490994944,-72
599616368498680448,-74
599616368506365824,-72
599616368514051328,-70
599616368521736704,-77
599616368529422208,-135
599616368537107522,-248
599616368544792576,-219
599616368552477568,161
599616368560162688,679
599616368567847680,679
599616368575532672,-33
599616368583217792,-558
599616368590902784,-362
599616368598587776,-130
599616368606272768,-113
599616368613957888,-53
599616368621642880,-48
599616368629327872,-96
599616368637012992,-74
599616368644697984,-50
599616368652382976,-67
599616368660068096,-62
599616368667753088,-50
599616368675438080,-53
599616368683123200,-50
599616368690808192,-43
599616368698493184,-41
599616368706178304,-38
599616368713863296,-31
599616368721548288,-24
599616368729233280,-21
599616368736918400,-16
599616368744603392,-9
599616368752288384,-2
599616368759973504,0
599616368767658496,7
599616368775343488,9
599616368783028608,12
599616368790713600,19
599616368798398592,24
599616368806083712,19
599616368813768704,9
599616368821453696,-7
599616368829138688,-33
599616368836823808,-65
599616368844508800,-91
599616368852193792,-111
599616368859878912,-116
599616368867563904,-123
599616368875248896,-128
599616368882934016,-123
599616368890619008,-120
599616368898304000,-120
599616368905989120,-120
599616368913674112,-113
599616368921359104,-101
599616368929044096,-106
599616368936729216,-108
599616368944414208,-99
599616368952099200,-94
599616368959784320,-96
599616368967469312,-94
599616368975154304,-89
599616368982839424,-89
599616368990524416,-89
599616368998209408,-87
599616369005894528,-87
599616369013579520,-87
599616369021264512,-87
599616369028949632,-84
599616369036634624,-87
599616369044319616,-87
599616369052004608,-87
599616369059689728,-87
599616369067374720,-84
599616369075059712,-82
599616369082744832,-89
599616369090429824,-89
599616369098114833,-84
599616369105799808,-82
599616369113484800,-84
599616369121169920,-87
599616369128854912,-89
599616369136539904,-87
599616369144225024,-84
599616369151910016,-87
599616369159595008,-91
599616369167280000,-99
599616369174965120,-106
599616369182650112,-103
599616369190335104,-82
599616369198020224,-58
599616369205705216,-58
599616369213390208,-53
599616369221075328,-55
599616369228760320,-79
599616369236445312,-87
599616369244130432,-74
599616369251815424,-74
599616369259500416,-79
599616369267185408,-74
599616369274870528,-72
599616369282555520,-72
599616369290240512,-74
599616369297925632,-84
599616369305610624,-157
599616369313295616,-261
599616369320980736,-161
599616369328665728,273
599616369336350720,688
599616369344035840,488
599616369351720832,-219
599616369359405824,-507
599616369367090944,-253
599616369374775936,-103
599616369382460928,-84
599616369390145920,-41
599616369397831040,-60
599616369405516032,-82
599616369413201024,-50
599616369420886144,-48
599616369428571136,-62
599616369436256128,-50
599616369443941248,-43
599616369451626240,-48
599616369459311232,-43
599616369466996352,-38
599616369474681344,-38
599616369482366336,-33
599616369490051328,-26
599616369497736448,-24
599616369505421440,-21
599616369513106432,-12
599616369520791552,-7
599616369528476544,-7
599616369536161536,0
599616369543846656,9
599616369551531648,12
599616369559216640,14
599616369566901760,16
599616369574586752,16
599616369582271744,9
599616369589956736,0
599616369597641856,-19
599616369605326848,-43
599616369613011840,-72
599616369620696960,-96
599616369628381952,-108
599616369636066944,-116
599616369643752064,-116
599616369651437056,-113
599616369659122140,-113
599616369666807680,-111
599616369674493184,-106
599616369682178560,-103
599616369689864064,-101
599616369697549440,-99
599616369705234944,-96
599616369712920320,-94
599616369720605824,-94
599616369728291328,-89
599616369735976704,-84
599616369743662208,-84
599616369751347584,-84
599616369759033088,-82
599616369766718464,-79
599616369774403968,-82
599616369782089472,-82
599616369789774848,-77
599616369797460352,-77
599616369805145728,-77
599616369812831232,-77
599616369820516736,-77
599616369828202112,-79
599616369835887616,-79
599616369843572992,-77
599616369851258496,-77
599616369858943872,-77
599616369866629376,-79
599616369874314880,-77
599616369882000256,-74
599616369889685760,-72
599616369897371136,-74
599616369905056640,-74
599616369912742016,-74
599616369920427520,-74
599616369928113024,-79
599616369935798400,-84
599616369943483904,-89
599616369951169280,-94
599616369958854784,-89
599616369966540160,-65
599616369974225664,-45
599616369981911168,-43
599616369989596544,-41
599616369997282048,-48
599616370004967424,-70
599616370012652928,-72
599616370020338304,-62
599616370028023808,-62
599616370035709312,-65
599616370043394688,-65
599616370051080192,-65
599616370058765568,-62
599616370066451072,-62
599616370074136448,-82
599616370081821952,-169
599616370089507456,-268
599616370097192832,-118
599616370104878336,367
599616370112563712,778
599616370120249216,514
599616370127934720,-219
599616370135620096,-480
599616370143305600,-217
599616370150990976,-77
599616370158676480,-82
599616370166361856,-70
599616370174047360,-77
599616370181732864,-82
599616370189418240,-65
599616370197103744,-62
599616370204789120,-65
599616370212474624,-58
599616370220159965,-53
599616370227844992,-55
599616370235529984,-50
599616370243215104,-45
599616370250900096,-45
599616370258585088,-43
599616370266270208,-38
599616370273955200,-36
599616370281640192,-31
599616370289325184,-26
599616370297010304,-21
599616370304695296,-16
599616370312380288,-14
599616370320065408,-14
599616370327750400,-9
599616370335435392,-7
599616370343120512,-9
599616370350805504,-9
599616370358490496,-12
599616370366175616,-21
599616370373860608,-38
599616370381545600,-58
599616370389230592,-77
599616370396915712,-91
599616370404600704,-99
599616370412285696,-103
599616370419970816,-103
599616370427655808,-101
599616370435340800,-101
599616370443025920,-101
599616370450710912,-99
599616370458395904,-94
599616370466081024,-94
599616370473766016,-89
599616370481451008,-89
599616370489136128,-87
599616370496821120,-87
599616370504506112,-84
599616370512191104,-82
599616370519876224,-79
599616370527561216,-79
599616370535246208,-79
599616370542931328,-79
599616370550616320,-77
599616370558301312,-74
599616370565986432,-74
599616370573671424,-74
599616370581356416,-72
599616370589041536,-74
599616370596726528,-77
599616370604411520,-77
599616370612096512,-77
599616370619781632,-74
599616370627466624,-74
599616370635151616,-74
599616370642836736,-77
599616370650521728,-79
599616370658206720,-77
599616370665891840,-74
599616370673576832,-77
599616370681261824,-77
599616370688946944,-77
599616370696631936,-74
599616370704316928,-72
599616370712001920,-72
599616370719687040,-72
599616370727372032,-72
599616370735057024,-72
599616370742742144,-72
599616370750427136,-72
599616370758112128,-70
599616370765797248,-70
599616370773482240,-67
599616370781167272,-67
599616370788852224,-67
599616370796537216,-67
599616370804222336,-70
599616370811907328,-74
599616370819592320,-87
599616370827277440,-94
599616370834962432,-94
599616370842647424,-70
599616370850332416,-41
599616370858017536,-41
599616370865702528,-43
599616370873387520,-41
599616370881072640,-58
599616370888757632,-74
599616370896442624,-67
599616370904127744,-58
599616370911812736,-62
599616370919497728,-65
599616370927182848,-62
599616370934867840,-60
599616370942552832,-62
599616370950237824,-72
599616370957922944,-142
599616370965607936,-270
599616370973292928,-224
599616370980978048,203
599616370988663040,775
599616370996348032,836
599616371004033152,166
599616371011718144,-396
599616371019403136,-292
599616371027088256,-65
599616371034773248,-84
599616371042458240,-125
599616371050143360,-103
599616371057828352,-91
599616371065513344,-96
599616371073198336,-87
599616371080883456,-77
599616371088568448,-74
599616371096253440,-74
599616371103938560,-70
599616371111623552,-67
599616371119308544,-65
599616371126993664,-62
599616371134678656,-60
599616371142363648,-58
599616371150048768,-58
599616371157733760,-55
599616371165418752,-50
599616371173103744,-48
599616371180788864,-48
599616371188473856,-45
599616371196158848,-43
599616371203843968,-43
599616371211528960,-43
599616371219213952,-43
599616371226899072,-43
599616371234584064,-48
599616371242269056,-53
599616371249954176,-55
599616371257639168,-62
599616371265324160,-72
599616371273009152,-84
599616371280694272,-91
599616371288379264,-94
599616371296064256,-96
599616371303749376,-99
599616371311434368,-99
599616371319119360,-94
599616371326804480,-94
599616371334489472,-94
599616371342174579,-91
599616371349859584,-87
599616371357544576,-87
599616371365229696,-87
599616371372914688,-84
599616371380599680,-84
599616371388284800,-84
599616371395969792,-84
599616371403654784,-82
599616371411339776,-82
599616371419024896,-82
599616371426709888,-82
599616371434394880,-79
599616371442080000,-79
599616371449764992,-79
599616371457449984,-77
599616371465135104,-74
599616371472820096,-74
599616371480505088,-74
599616371488190208,-74
599616371495875200,-74
599616371503560192,-74
599616371511245184,-74
599616371518930304,-74
599616371526615296,-74
599616371534300288,-72
