599618345004757376,2187
599618345012449664,2313
599618345020141952,2204
599618345027834240,2409
599618345035526656,2489
599618345043218944,2436
599618345050911232,2499
599618345058603520,2554
599618345066295808,2542
599618345073988096,2562
599618345081680512,2598
599618345089372800,2603
599618345097065088,2605
599618345104757376,2622
599618345112449664,2634
599618345120141952,2634
599618345127834240,2624
599618345135526656,2615
599618345143218944,2600
599618345150911232,2581
599618345158603520,2569
599618345166295808,2562
599618345173988096,2554
599618345181680512,2549
599618345189372800,2549
599618345197065088,2549
599618345204757376,2554
599618345212449664,2552
599618345220141952,2547
599618345227834240,2552
599618345235526656,2549
599618345243218944,2545
599618345250911232,2542
599618345258603520,2542
599618345266295808,2540
599618345273988096,2530
599618345281680512,2530
599618345289372800,2530
599618345297065088,2523
599618345304757376,2513
599618345312449664,2504
599618345320141952,2499
599618345327834240,2499
599618345335526656,2494
599618345343218944,2472
599618345350911232,2460
599618345358603520,2453
599618345366295808,2436
599618345373988096,2426
599618345381680512,2424
599618345389372800,2412
599618345397065088,2390
599618345404757376,2380
599618345412449664,2373
599618345420141952,2358
599618345427834240,2339
599618345435526656,2332
599618345443218944,2322
599618345450911232,2300
599618345458603520,2279
599618345466295808,2286
599618345473988096,2296
599618345481680512,2284
599618345489372800,2262
599618345497065088,2247
599618345504757376,2216
599618345512449664,2180
599618345520141952,2168
599618345527834240,2163
599618345535526656,2146
599618345543218944,2122
599618345550911232,2107
599618345558603549,2095
599618345566289024,2083
599618345573974528,2068
599618345581659904,2032
599618345589345408,1943
599618345597030784,1868
599618345604716288,1989
599618345612401664,2344
599618345620087168,2620
599618345627772672,2424
599618345635458048,1923
599618345643143552,1716
599618345650828928,1805
599618345658514432,1834
599618345666199808,1841
599618345673885312,1880
599618345681570816,1848
599618345689256192,1810
599618345696941696,1815
599618345704627072,1803
599618345712312576,1783
599618345719998080,1778
599618345727683456,1761
599618345735368960,1745
599618345743054336,1737
599618345750739840,1725
599618345758425216,1713
599618345766110720,1703
599618345773796224,1691
599618345781481600,1674
599618345789167104,1665
599618345796852480,1658
599618345804537984,1648
599618345812223360,1631
599618345819908864,1621
599618345827594368,1619
599618345835279744,1614
599618345842965248,1592
599618345850650624,1573
599618345858336128,1563
599618345866021504,1549
599618345873707008,1525
599618345881392512,1503
599618345889077888,1476
599618345896763392,1442
599618345904448768,1409
599618345912134272,1382
599618345919819648,1365
599618345927505152,1348
599618345935190656,1331
599618345942876032,1317
599618345950561536,1307
599618345958246912,1290
599618345965932416,1278
599618345973617792,1271
599618345981303296,1264
599618345988988800,1252
599618345996674176,1242
599618346004359680,1230
599618346012045056,1218
599618346019730560,1208
599618346027416064,1198
599618346035101440,1191
599618346042786944,1179
599618346050472320,1167
599618346058157824,1160
599618346065843200,1150
599618346073528704,1140
599618346081214208,1131
599618346088899584,1119
599618346096585088,1106
599618346104270464,1097
599618346111955968,1087
599618346119641374,1075
599618346127326848,1065
599618346135012352,1056
599618346142697728,1046
599618346150383232,1036
599618346158068608,1029
599618346165754112,1017
599618346173439488,1007
599618346181124992,1000
599618346188810496,990
599618346196495872,981
599618346204181376,971
599618346211866752,959
599618346219552256,949
599618346227237632,942
599618346234923136,928
599618346242608640,920
599618346250294016,935
599618346257979520,945
599618346265664896,930
599618346273350400,918
599618346281035904,908
599618346288721280,879
599618346296406784,855
599618346304092160,855
599618346311777664,853
599618346319463040,838
599618346327148544,831
599618346334834048,831
599618346342519424,821
599618346350204928,807
599618346357890304,797
599618346365575808,763
599618346373261184,679
599618346380946688,655
599618346388632192,860
599618346396317568,1220
599618346404003072,1343
599618346411688448,1015
599618346419373952,626
599618346427059328,580
599618346434744832,669
599618346442430336,684
599618346450115712,717
599618346457801216,727
599618346465486592,691
599618346473172096,686
599618346480857472,700
599618346488542976,693
599618346496228480,684
599618346503913856,684
599618346511599360,679
599618346519284736,671
599618346526970240,662
599618346534655616,652
599618346542341120,650
599618346550026624,650
599618346557712000,645
599618346565397504,642
599618346573082880,640
599618346580768384,640
599618346588453888,640
599618346596139264,638
599618346603824768,635
599618346611510144,635
599618346619195648,633
599618346626881024,628
599618346634566528,621
599618346642252032,618
599618346649937408,613
599618346657622912,604
599618346665308288,589
599618346672993792,572
599618346680679199,551
599618346688364672,529
599618346696050176,514
599618346703735552,507
599618346711421056,500
599618346719106432,493
599618346726791936,488
599618346734477312,483
599618346742162816,478
599618346749848320,476
599618346757533696,476
599618346765219200,473
599618346772904576,468
599618346780590080,468
599618346788275456,468
599618346795960960,471
599618346803646464,468
599618346811331840,464
599618346819017344,461
599618346826702720,461
599618346834388224,459
599618346842073728,454
599618346849759104,451
599618346857444608,447
599618346865129984,444
599618346872815488,442
599618346880500864,439
599618346888186368,430
599618346895871872,427
599618346903557248,430
599618346911242752,425
599618346918928128,418
599618346926613632,418
599618346934299008,418
599618346941984512,415
599618346949670016,413
599618346957355392,408
599618346965040896,403
599618346972726272,398
599618346980411776,398
599618346988097152,396
599618346995782656,391
599618347003468160,391
599618347011153536,391
599618347018839040,386
599618347026524416,381
599618347034209920,381
599618347041895296,377
599618347049580800,372
599618347057266304,381
599618347064951680,398
599618347072637184,398
599618347080322560,393
599618347088008064,389
599618347095693440,374
599618347103378944,352
599618347111064448,348
599618347118749824,355
599618347126435328,352
599618347134120704,345
599618347141806208,343
599618347149491712,343
599618347157177088,343
599618347164862592,340
599618347172547968,323
599618347180233472,265
599618347187918848,207
599618347195604352,304
599618347203289856,613
599618347210975232,870
599618347218660736,717
599618347226346112,316
599618347234031616,157
599618347241717024,241
599618347249402880,280
599618347257088768,294
599618347264774656,328
599618347272460544,306
599618347280146304,290
599618347287832192,309
599618347295518080,311
599618347303203968,302
599618347310889856,304
599618347318575744,306
599618347326261504,304
599618347333947392,309
599618347341633280,309
599618347349319168,304
599618347357005056,306
599618347364690944,309
599618347372376704,309
599618347380062592,309
599618347387748480,311
599618347395434368,314
599618347403120256,314
599618347410806144,311
599618347418492032,314
599618347426177792,319
599618347433863680,316
599618347441549568,314
599618347449235456,311
599618347456921344,311
599618347464607232,306
599618347472292992,294
599618347479978880,285
599618347487664768,268
599618347495350656,253
599618347503036544,246
599618347510722432,236
599618347518408192,229
599618347526094080,229
599618347533779968,227
599618347541465856,224
599618347549151744,224
599618347556837632,224
599618347564523520,224
599618347572209280,227
599618347579895168,227
599618347587581056,224
599618347595266944,222
599618347602952832,224
599618347610638720,224
599618347618324480,224
599618347626010368,224
599618347633696256,227
599618347641382144,224
599618347649068032,224
599618347656753920,227
599618347664439680,224
599618347672125568,224
599618347679811456,224
599618347687497344,224
599618347695183232,224
599618347702869120,222
599618347710554880,219
599618347718240768,217
599618347725926656,217
599618347733612544,219
599618347741298432,217
599618347748984320,215
599618347756670208,212
599618347764355968,210
599618347772041856,212
599618347779727744,212
599618347787413632,212
599618347795099520,212
599618347802785367,212
599618347810470912,210
599618347818156416,207
599618347825841792,207
599618347833527296,210
599618347841212672,207
599618347848898176,205
599618347856583552,207
599618347864269056,207
599618347871954560,200
599618347879639936,195
599618347887325440,198
599618347895010816,195
599618347902696320,193
599618347910381696,198
599618347918067200,217
599618347925752704,227
599618347933438080,217
599618347941123584,217
599618347948808960,215
599618347956494464,190
599618347964179968,178
599618347971865344,190
599618347979550848,193
599618347987236224,186
599618347994921728,186
599618348002607104,186
599618348010292608,188
599618348017978112,188
599618348025663488,181
599618348033348992,145
599618348041034368,79
599618348048719872,101
599618348056405248,333
599618348064090752,633
599618348071776256,640
599618348079461632,294
599618348087147136,36
599618348094832512,77
599618348102518016,149
599618348110203392,159
599618348117888896,186
599618348125574400,186
599618348133259776,166
599618348140945280,176
599618348148630656,181
599618348156316160,176
599618348164001536,183
599618348171687040,186
599618348179372544,186
599618348187057920,186
599618348194743424,188
599618348202428800,193
599618348210114304,193
599618348217799680,190
599618348225485184,193
599618348233170688,198
599618348240856064,200
599618348248541568,198
599618348256226944,198
599618348263912448,203
599618348271597952,203
599618348279283328,200
599618348286968832,203
599618348294654208,205
599618348302339712,203
599618348310025088,200
599618348317710592,203
599618348325396096,195
599618348333081472,183
599618348340766976,169
599618348348452352,159
599618348356137856,152
599618348363823192,145
599618348371508736,137
599618348379194240,135
599618348386879616,132
599618348394565120,132
599618348402250496,132
599618348409936000,132
599618348417621376,132
599618348425306880,132
599618348432992384,137
599618348440677760,137
599618348448363264,132
599618348456048640,135
599618348463734144,140
599618348471419520,142
599618348479105024,140
599618348486790528,145
599618348494475904,147
599618348502161408,145
599618348509846784,142
599618348517532288,145
599618348525217792,149
599618348532903168,147
599618348540588672,142
599618348548274048,142
599618348555959552,149
599618348563644928,147
599618348571330432,145
599618348579015936,142
599618348586701312,145
599618348594386816,147
599618348602072192,147
599618348609757696,142
599618348617443072,140
599618348625128576,145
599618348632814080,147
599618348640499456,145
599618348648184960,142
599618348655870336,145
599618348663555840,147
599618348671241216,145
599618348678926720,145
599618348686612224,147
599618348694297600,149
599618348701983104,147
599618348709668480,145
599618348717353984,149
599618348725039360,152
599618348732724864,149
599618348740410368,149
599618348748095744,149
599618348755781248,147
599618348763466624,152
599618348771152128,154
599618348778837632,147
599618348786523008,152
599618348794208512,174
599618348801893888,176
599618348809579392,169
599618348817264768,169
599618348824950272,157
599618348832635776,137
599618348840321152,137
599618348848006656,142
599618348855692032,137
599618348863377536,135
599618348871062912,140
599618348878748416,140
599618348886433920,140
599618348894119296,142
599618348901804800,132
599618348909490176,82
599618348917175680,31
599618348924861021,113
599618348932546560,374
599618348940232064,584
599618348947917440,456
599618348955602944,116
599618348963288320,-12
599618348970973824,72
599618348978659200,108
599618348986344704,123
599618348994030208,152
599618349001715584,137
599618349009401088,128
599618349017086464,140
599618349024771968,135
599618349032457344,135
599618349040142848,147
599618349047828352,147
599618349055513728,145
599618349063199232,147
599618349070884608,149
599618349078570112,149
599618349086255616,152
599618349093940992,154
599618349101626496,154
599618349109311872,154
599618349116997376,161
599618349124682752,161
599618349132368256,157
599618349140053760,161
599618349147739136,169
599618349155424640,166
599618349163110016,164
599618349170795520,166
599618349178480896,171
599618349186166400,166
599618349193851904,159
599618349201537280,152
599618349209222784,145
599618349216908160,132
599618349224593664,120
599618349232279040,113
599618349239964544,106
599618349247650048,99
599618349255335424,101
599618349263020928,101
599618349270706304,94
599618349278391808,94
599618349286077184,101
599618349293762688,101
599618349301448192,101
599618349309133568,101
599618349316819072,101
599618349324504448,101
599618349332189952,106
599618349339875328,108
599618349347560832,103
599618349355246336,108
599618349362931712,111
599618349370617216,108
599618349378302592,108
599618349385988096,111
599618349393673600,113
599618349401358976,111
599618349409044480,111
599618349416729856,113
599618349424415360,113
599618349432100736,111
599618349439786240,111
599618349447471744,113
599618349455157120,113
599618349462842624,113
599618349470528000,111
599618349478213504,111
599618349485898846,116
599618349493584512,116
599618349501270144,111
599618349508955776,111
599618349516641536,116
599618349524327168,116
599618349532012800,113
599618349539698432,113
599618349547384064,116
599618349555069824,116
599618349562755456,113
599618349570441088,111
599618349578126720,113
599618349585812480,111
599618349593498112,111
599618349601183744,111
599618349608869376,113
599618349616555008,111
599618349624240768,113
599618349631926400,120
599618349639612032,116
599618349647297664,108
599618349654983296,108
599618349662669056,116
599618349670354688,116
599618349678040320,108
599618349685725952,108
599618349693411584,116
599618349701097344,116
599618349708782976,113
599618349716468608,123
599618349724154240,132
599618349731839872,135
599618349739525632,128
599618349747211264,116
599618349754896896,103
599618349762582528,99
599618349770268288,99
599618349777953920,103
599618349785639552,106
599618349793325184,103
599618349801010816,101
599618349808696576,101
599618349816382208,103
599618349824067840,99
599618349831753472,65
599618349839439104,14
599618349847124864,70
599618349854810496,294
599618349862496128,480
599618349870181760,364
599618349877867392,77
599618349885553152,-31
599618349893238784,36
599618349900924416,72
599618349908610048,91
599618349916295680,120
599618349923981440,111
599618349931667072,96
599618349939352704,106
599618349947038336,111
599618349954724096,111
599618349962409728,111
599618349970095360,111
599618349977780992,113
599618349985466624,118
599618349993152384,118
599618350000838016,118
599618350008523648,123
599618350016209280,118
599618350023894912,113
599618350031580672,125
599618350039266304,132
599618350046951931,125
599618350054637568,128
599618350062323200,132
599618350070008832,132
599618350077694592,140
599618350085380224,137
599618350093065856,135
599618350100751488,132
599618350108437120,125
599618350116122880,125
599618350123808512,125
599618350131494144,111
599618350139179776,99
599618350146865536,91
599618350154551168,84
599618350162236800,77
599618350169922432,72
599618350177608064,74
599618350185293824,74
599618350192979456,74
599618350200665088,72
599618350208350720,67
599618350216036352,70
599618350223722112,79
599618350231407744,77
599618350239093376,74
599618350246779008,79
599618350254464640,79
599618350262150400,77
599618350269836032,77
599618350277521664,84
599618350285207296,94
599618350292892928,87
599618350300578688,79
599618350308264320,89
599618350315949952,94
599618350323635584,91
599618350331321344,89
599618350339006976,87
599618350346692608,87
599618350354378240,89
599618350362063872,94
599618350369749632,96
599618350377435264,94
599618350385120896,94
599618350392806528,94
599618350400492160,89
599618350408177920,89
599618350415863552,96
599618350423549184,103
599618350431234816,94
599618350438920448,91
599618350446606208,99
599618350454291840,101
599618350461977472,101
599618350469663104,96
599618350477348736,94
599618350485034496,96
599618350492720128,94
599618350500405760,99
599618350508091392,103
599618350515777152,99
599618350523462784,96
599618350531148416,101
599618350538834048,103
599618350546519680,103
599618350554205440,101
599618350561891072,101
599618350569576704,103
599618350577262336,106
599618350584947968,103
599618350592633728,111
599618350600319360,125
599618350608005014,123
599618350615690496,116
599618350623376000,118
599618350631061376,108
599618350638746880,94
599618350646432256,89
599618350654117760,96
599618350661803136,96
599618350669488640,89
599618350677174144,99
599618350684859520,103
599618350692545024,94
599618350700230400,96
599618350707915904,91
599618350715601280,48
599618350723286784,21
599618350730972288,116
599618350738657664,311
599618350746343168,418
599618350754028544,282
599618350761714048,65
599618350769399552,2
599618350777084928,50
599618350784770432,77
599618350792455808,108
599618350800141312,130
599618350807826688,116
599618350815512192,111
599618350823197696,120
599618350830883072,120
599618350838568576,118
599618350846253952,118
599618350853939456,123
599618350861624832,128
599618350869310336,130
599618350876995840,132
599618350884681216,130
599618350892366720,128
599618350900052096,132
599618350907737600,135
599618350915422976,137
599618350923108480,140
599618350930793984,140
599618350938479360,145
599618350946164864,147
599618350953850240,140
599618350961535744,145
599618350969221120,149
599618350976906624,142
599618350984592128,140
599618350992277504,142
599618350999963008,140
599618351007648384,130
599618351015333888,125
599618351023019264,113
599618351030704768,103
599618351038390272,101
599618351046075648,96
599618351053761152,94
599618351061446528,89
599618351069132032,84
599618351076817536,89
599618351084502912,91
599618351092188416,89
599618351099873792,94
599618351107559296,94
599618351115244672,89
599618351122930176,94
599618351130615680,101
599618351138301056,99
599618351145986560,101
599618351153671936,103
599618351161357440,101
599618351169042839,103
599618351176728704,103
599618351184414592,99
599618351192100480,103
599618351199786368,108
599618351207472128,101
599618351215158016,106
599618351222843904,111
599618351230529792,101
599618351238215680,101
599618351245901568,106
599618351253587328,103
599618351261273216,101
599618351268959104,106
599618351276644992,101
599618351284330880,101
599618351292016768,106
599618351299702528,103
599618351307388416,101
599618351315074304,108
599618351322760192,108
599618351330446080,101
599618351338131968,106
599618351345817856,111
599618351353503616,106
599618351361189504,101
599618351368875392,103
599618351376561280,106
599618351384247168,103
599618351391933056,103
599618351399618816,103
599618351407304704,101
599618351414990592,101
599618351422676480,106
599618351430362368,106
599618351438048256,103
599618351445734016,101
599618351453419904,106
599618351461105792,106
599618351468791680,106
599618351476477568,111
599618351484163456,108
599618351491849344,106
599618351499535104,120
599618351507220992,132
599618351514906880,128
599618351522592768,120
599618351530278656,111
599618351537964544,99
599618351545650304,96
599618351553336192,99
599618351561022080,101
599618351568707968,96
599618351576393856,101
599618351584079744,101
599618351591765504,96
599618351599451392,101
599618351607137280,89
599618351614823168,48
599618351622509056,21
599618351630194944,118
599618351637880704,333
599618351645566592,437
599618351653252480,261
599618351660938368,19
599618351668624256,-12
599618351676310144,45
599618351683996032,62
599618351691681792,106
599618351699367680,130
599618351707053568,101
599618351714739456,101
599618351722425344,118
599618351730111182,111
599618351737796736,111
599618351745482240,120
599618351753167616,118
599618351760853120,113
599618351768538496,120
599618351776224000,125
599618351783909376,120
599618351791594880,120
599618351799280384,128
599618351806965760,130
599618351814651264,125
599618351822336640,128
599618351830022144,132
599618351837707520,135
599618351845393024,132
599618351853078528,135
599618351860763904,135
599618351868449408,132
599618351876134784,135
599618351883820288,135
599618351891505792,130
599618351899191168,125
599618351906876672,123
599618351914562048,111
599618351922247552,99
599618351929932928,91
599618351937618432,87
599618351945303936,84
599618351952989312,74
599618351960674816,70
599618351968360192,72
599618351976045696,74
599618351983731072,72
599618351991416576,74
599618351999102080,79
599618352006787456,77
599618352014472960,79
599618352022158336,84
599618352029843840,82
599618352037529216,84
599618352045214720,87
599618352052900224,84
599618352060585600,89
599618352068271104,94
599618352075956480,89
599618352083641984,89
599618352091327360,94
599618352099012864,91
599618352106698368,87
599618352114383744,94
599618352122069248,96
599618352129754624,87
599618352137440128,89
599618352145125632,94
599618352152811008,89
599618352160496512,87
599618352168181888,91
599618352175867392,91
599618352183552768,89
599618352191238272,89
599618352198923776,94
599618352206609152,94
599618352214294656,89
599618352221980032,91
599618352229665536,94
599618352237350912,94
599618352245036416,91
599618352252721920,91
599618352260407296,96
599618352268092800,94
599618352275778176,89
599618352283463680,94
599618352291149011,96
599618352298834560,94
599618352306520064,94
599618352314205440,96
599618352321890944,94
599618352329576320,91
599618352337261824,94
599618352344947200,94
599618352352632704,94
599618352360318208,94
599618352368003584,94
599618352375689088,94
599618352383374464,96
599618352391059968,91
599618352398745344,101
599618352406430848,116
599618352414116352,116
599618352421801728,111
599618352429487232,103
599618352437172608,91
599618352444858112,82
599618352452543616,82
599618352460228992,87
599618352467914496,87
599618352475599872,87
599618352483285376,87
599618352490970752,87
599618352498656256,89
599618352506341760,84
599618352514027136,53
599618352521712640,0
599618352529398016,29
599618352537083520,229
599618352544768896,451
599618352552454400,401
599618352560139904,101
599618352567825280,-62
599618352575510784,-7
599618352583196160,36
599618352590881664,60
599618352598567040,111
599618352606252544,106
599618352613938048,82
599618352621623424,94
599618352629308928,101
599618352636994304,94
599618352644679808,99
599618352652365184,106
599618352660050688,106
599618352667736192,106
599618352675421568,108
599618352683107072,111
599618352690792448,113
599618352698477952,113
599618352706163328,113
599618352713848832,120
599618352721534336,123
599618352729219712,123
599618352736905216,125
599618352744590592,130
599618352752276096,130
599618352759961600,132
599618352767646976,135
599618352775332480,135
599618352783017856,135
599618352790703360,132
599618352798388736,128
599618352806074240,123
599618352813759744,116
599618352821445120,101
599618352829130624,87
599618352836816000,79
599618352844501504,72
599618352852186836,65
599618352859872768,60
599618352867558656,58
599618352875244544,58
599618352882930432,60
599618352890616192,60
599618352898302080,65
599618352905987968,62
599618352913673856,60
599618352921359744,65
599618352929045632,70
599618352936731392,70
599618352944417280,72
599618352952103168,74
599618352959789056,74
599618352967474944,74
599618352975160832,74
599618352982846592,74
599618352990532480,74
599618352998218368,74
599618353005904256,72
599618353013590144,72
599618353021276032,79
599618353028961920,77
599618353036647680,70
599618353044333568,72
599618353052019456,74
599618353059705344,72
599618353067391232,72
599618353075077120,74
599618353082762880,74
599618353090448768,74
599618353098134656,74
599618353105820544,72
599618353113506432,72
599618353121192320,77
599618353128878080,74
599618353136563968,74
599618353144249856,79
599618353151935744,79
599618353159621632,77
599618353167307520,77
599618353174993408,82
599618353182679168,79
599618353190365056,74
599618353198050944,79
599618353205736832,84
599618353213422720,77
599618353221108608,77
599618353228794368,84
599618353236480256,82
599618353244166144,77
599618353251852032,89
599618353259537920,111
599618353267223808,113
599618353274909568,106
599618353282595456,101
599618353290281344,89
599618353297967232,74
599618353305653120,74
599618353313339008,77
599618353321024768,77
599618353328710656,77
599618353336396544,79
599618353344082432,77
599618353351768320,77
599618353359454208,79
599618353367140096,55
599618353374825856,-7
599618353382511744,-21
599618353390197632,147
599618353397883520,439
599618353405569408,531
599618353413255179,253
599618353420941056,-53
599618353428626944,-62
599618353436312832,19
599618353443998720,33
599618353451684480,79
599618353459370368,111
599618353467056256,77
599618353474742144,70
599618353482428032,91
599618353490113920,89
599618353497799680,84
599618353505485568,94
599618353513171456,96
599618353520857344,91
599618353528543232,91
599618353536229120,96
599618353543914880,99
599618353551600768,101
599618353559286656,108
599618353566972544,111
599618353574658432,111
599618353582344320,111
599618353590030208,116
599618353597715968,123
599618353605401856,123
599618353613087744,128
599618353620773632,130
599618353628459520,128
599618353636145408,130
599618353643831168,132
599618353651517056,130
599618353659202944,123
599618353666888832,113
599618353674574720,99
599618353682260608,82
599618353689946368,65
599618353697632256,53
599618353705318144,45
599618353713004032,43
599618353720689920,43
599618353728375808,43
599618353736061696,43
599618353743747456,43
599618353751433344,45
599618353759119232,48
599618353766805120,45
599618353774491008,48
599618353782176896,53
599618353789862656,55
599618353797548544,55
599618353805234432,60
599618353812920320,62
599618353820606208,62
599618353828292096,62
599618353835977856,62
599618353843663744,67
599618353851349632,70
599618353859035520,67
599618353866721408,65
599618353874407296,67
599618353882093056,65
599618353889778944,65
599618353897464832,67
599618353905150720,67
599618353912836608,65
599618353920522496,65
599618353928208384,65
599618353935894144,65
599618353943580032,67
599618353951265920,67
599618353958951808,65
599618353966637696,65
599618353974323522,67
599618353982009088,67
599618353989694592,67
599618353997379968,67
599618354005065472,67
599618354012750848,67
599618354020436352,65
599618354028121728,65
599618354035807232,67
599618354043492736,67
599618354051178112,67
599618354058863616,65
599618354066548992,65
599618354074234496,74
599618354081919872,94
599618354089605376,96
599618354097290880,94
599618354104976256,91
599618354112661760,74
599618354120347136,55
599618354128032640,60
599618354135718144,70
599618354143403520,65
599618354151089024,62
599618354158774400,65
599618354166459904,65
599618354174145280,70
599618354181830784,67
599618354189516288,38
599618354197201664,-26
599618354204887168,-43
599618354212572544,137
599618354220258048,461
599618354227943424,567
599618354235628928,268
599618354243314432,-67
599618354250999808,-79
599618354258685312,9
599618354266370688,21
599618354274056192,67
599618354281741568,94
599618354289427072,62
599618354297112576,62
599618354304797952,82
599618354312483456,77
599618354320168832,74
599618354327854336,82
599618354335539712,84
599618354343225216,87
599618354350910720,91
599618354358596096,91
599618354366281600,94
599618354373966976,99
599618354381652480,99
599618354389337856,101
599618354397023360,106
599618354404708864,108
599618354412394240,111
599618354420079744,116
599618354427765120,118
599618354435450624,123
599618354443136128,123
599618354450821504,123
599618354458507008,125
599618354466192384,123
599618354473877888,123
599618354481563264,118
599618354489248768,103
599618354496934272,87
599618354504619648,74
599618354512305152,60
599618354519990528,45
599618354527676032,36
599618354535361347,33
599618354543047296,36
599618354550733184,33
599618354558419072,33
599618354566104960,36
599618354573790720,38
599618354581476608,38
599618354589162496,38
599618354596848384,43
599618354604534272,43
599618354612220160,43
599618354619905920,45
599618354627591808,50
599618354635277696,53
599618354642963584,53
599618354650649472,55
599618354658335360,60
599618354666021120,60
599618354673707008,65
599618354681392896,67
599618354689078784,65
599618354696764672,65
599618354704450560,62
599618354712136448,62
599618354719822208,65
599618354727508096,67
599618354735193984,62
599618354742879872,60
599618354750565760,65
599618354758251648,65
599618354765937408,62
599618354773623296,60
599618354781309184,65
599618354788995072,65
599618354796680960,62
599618354804366848,62
599618354812052608,62
599618354819738496,62
599618354827424384,62
599618354835110272,62
599618354842796160,65
599618354850482048,65
599618354858167936,62
599618354865853696,58
599618354873539584,67
599618354881225472,89
599618354888911360,94
599618354896597248,89
599618354904283136,87
599618354911968896,74
599618354919654784,58
599618354927340672,55
599618354935026560,62
599618354942712448,58
599618354950398336,58
599618354958084096,60
599618354965769984,60
599618354973455872,60
599618354981141760,60
599618354988827648,45
599618354996513536,-14
599618355004199296,-70
599618355011885184,53
599618355019571072,384
599618355027256960,618
599618355034942848,427
599618355042628736,16
599618355050314624,-111
599618355058000384,-14
599618355065686272,14
599618355073372160,41
599618355081058048,82
599618355088743936,60
599618355096429690,45
599618355104115200,65
599618355111800704,70
599618355119486080,65
599618355127171584,72
599618355134856960,74
599618355142542464,74
599618355150227840,79
599618355157913344,82
599618355165598848,82
599618355173284224,87
599618355180969728,89
599618355188655104,91
599618355196340608,96
599618355204025984,101
599618355211711488,103
599618355219396992,108
599618355227082368,111
599618355234767872,113
599618355242453248,118
599618355250138752,120
599618355257824256,120
599618355265509632,120
599618355273195136,120
599618355280880512,113
599618355288566016,103
599618355296251392,94
599618355303936896,74
599618355311622400,53
599618355319307776,45
599618355326993280,38
599618355334678656,31
599618355342364160,29
599618355350049536,33
599618355357735040,36
599618355365420544,36
599618355373105920,38
599618355380791424,41
599618355388476800,41
599618355396162304,45
599618355403847680,45
599618355411533184,43
599618355419218688,50
599618355426904064,55
599618355434589568,53
599618355442274944,53
599618355449960448,55
599618355457645824,60
599618355465331328,58
599618355473016832,55
599618355480702208,60
599618355488387712,65
599618355496073088,60
599618355503758592,60
599618355511444096,62
599618355519129472,62
599618355526814976,62
599618355534500352,62
599618355542185856,62
599618355549871232,65
599618355557556736,65
599618355565242240,62
599618355572927616,65
599618355580613120,65
599618355588298496,65
599618355595984000,67
599618355603669376,70
599618355611354880,72
599618355619040384,72
599618355626725760,67
599618355634411264,67
599618355642096640,70
599618355649782144,70
599618355657467519,72
599618355665153408,72
599618355672839296,72
599618355680525184,74
599618355688211072,72
599618355695896832,70
599618355703582720,74
599618355711268608,94
599618355718954496,103
599618355726640384,96
599618355734326272,96
599618355742012032,89
599618355749697920,67
599618355757383808,60
599618355765069696,65
599618355772755584,65
599618355780441472,62
599618355788127232,65
599618355795813120,65
599618355803499008,67
599618355811184896,67
599618355818870784,55
599618355826556672,-2
599618355834242560,-72
599618355841928320,4
599618355849614208,319
599618355857300096,635
599618355864985984,555
599618355872671872,125
599618355880357760,-108
599618355888043520,-29
599618355895729408,26
599618355903415296,33
599618355911101184,70
599618355918787072,65
599618355926472960,43
599618355934158720,60
599618355941844608,67
599618355949530496,58
599618355957216384,62
599618355964902272,70
599618355972588160,70
599618355980274048,72
599618355987959808,74
599618355995645696,77
599618356003331584,79
599618356011017472,79
599618356018703360,84
599618356026389248,89
599618356034075008,94
599618356041760896,94
599618356049446784,96
599618356057132672,103
599618356064818560,108
599618356072504448,111
599618356080190208,113
599618356087876096,113
599618356095561984,113
599618356103247872,113
599618356110933760,111
599618356118619648,103
599618356126305408,91
599618356133991296,74
599618356141677184,58
599618356149363072,45
599618356157048960,41
599618356164734848,33
599618356172420736,31
599618356180106496,33
599618356187792384,36
599618356195478272,36
599618356203164160,36
599618356210850048,33
599618356218535862,36
599618356226221696,41
599618356233907584,43
599618356241593472,43
599618356249279360,43
599618356256965120,48
599618356264651008,48
599618356272336896,45
599618356280022784,50
599618356287708672,55
599618356295394560,53
599618356303080320,53
599618356310766208,58
599618356318452096,55
599618356326137984,55
599618356333823872,55
599618356341509760,58
599618356349195520,55
599618356356881408,58
599618356364567296,60
599618356372253184,60
599618356379939072,55
599618356387624960,55
599618356395310848,58
599618356402996608,55
599618356410682496,58
599618356418368384,58
599618356426054272,55
599618356433740160,58
599618356441426048,60
599618356449111808,58
599618356456797696,58
599618356464483584,58
599618356472169472,60
599618356479855360,60
599618356487541248,58
599618356495227008,58
599618356502912896,62
599618356510598784,65
599618356518284672,60
599618356525970560,60
599618356533656448,62
599618356541342336,62
599618356549028096,60
599618356556713984,58
599618356564399872,67
599618356572085760,87
599618356579771648,96
599618356587457536,89
599618356595143296,89
599618356602829184,82
599618356610515072,60
599618356618200960,53
599618356625886848,62
599618356633572736,62
599618356641258496,60
599618356648944384,62
599618356656630272,62
599618356664316160,62
599618356672002048,62
599618356679687936,50
599618356687373696,-14
599618356695059584,-89
599618356702745472,14
599618356710431360,357
599618356718117248,676
599618356725803136,572
599618356733489024,120
599618356741174784,-116
599618356748860672,-26
599618356756546560,31
599618356764232448,31
599618356771918336,58
599618356779604205,53
599618356787289728,38
599618356794975232,48
599618356802660608,55
599618356810346112,53
599618356818031488,55
599618356825716992,60
599618356833402368,65
599618356841087872,65
599618356848773376,65
599618356856458752,67
599618356864144256,72
599618356871829632,74
599618356879515136,77
599618356887200512,82
599618356894886016,87
599618356902571520,91
599618356910256896,94
599618356917942400,94
599618356925627776,101
599618356933313280,106
599618356940998784,108
599618356948684160,108
599618356956369664,108
599618356964055040,106
599618356971740544,101
599618356979425920,94
599618356987111424,82
599618356994796928,67
599618357002482304,48
599618357010167808,36
599618357017853184,29
599618357025538688,24
599618357033224064,21
599618357040909568,21
599618357048595072,19
599618357056280448,19
599618357063965952,21
599618357071651328,26
599618357079336832,26
599618357087022208,31
599618357094707712,31
599618357102393216,26
599618357110078592,29
599618357117764096,33
599618357125449472,36
599618357133134976,38
599618357140820352,38
599618357148505856,38
599618357156191360,41
599618357163876736,43
599618357171562240,43
599618357179247616,43
599618357186933120,48
599618357194618496,48
599618357202304000,43
599618357209989504,45
599618357217674880,50
599618357225360384,50
599618357233045760,50
599618357240731264,50
599618357248416768,48
599618357256102144,48
599618357263787648,50
599618357271473024,50
599618357279158528,50
599618357286843904,50
599618357294529408,48
599618357302214912,45
599618357309900288,50
599618357317585792,53
599618357325271168,50
599618357332956672,55
599618357340642030,58
599618357348327936,55
599618357356013824,58
599618357363699712,55
599618357371385600,55
599618357379071360,58
599618357386757248,55
599618357394443136,55
599618357402129024,58
599618357409814912,58
599618357417500800,58
599618357425186560,55
599618357432872448,55
599618357440558336,58
599618357448244224,58
599618357455930112,55
599618357463616000,55
599618357471301760,53
599618357478987648,55
599618357486673536,55
599618357494359424,53
599618357502045312,53
599618357509731200,58
599618357517417088,62
599618357525102848,60
599618357532788736,58
599618357540474624,60
599618357548160512,58
599618357555846400,53
599618357563532288,55
599618357571218048,77
599618357578903936,91
599618357586589824,87
599618357594275712,82
599618357601961600,74
599618357609647488,53
599618357617333248,43
599618357625019136,53
599618357632705024,53
599618357640390912,48
599618357648076800,48
599618357655762688,53
599618357663448576,55
599618357671134336,53
599618357678820224,29
599618357686506112,-43
599618357694192000,-103
599618357701877888,36
599618357709563776,420
599618357717249536,727
599618357724935424,560
599618357732621312,79
599618357740307200,-128
599618357747993088,-31
599618357755678976,16
599618357763364736,21
599618357771050624,43
599618357778736512,29
599618357786422400,19
599618357794108288,33
599618357801794176,36
599618357809479936,33
599618357817165824,41
599618357824851712,45
599618357832537600,48
599618357840223488,53
599618357847909376,53
599618357855595264,55
599618357863281024,58
599618357870966912,60
599618357878652800,62
599618357886338688,67
599618357894024576,70
599618357901710373,72
599618357909395840,77
599618357917081344,82
599618357924766720,84
599618357932452224,89
599618357940137600,94
599618357947823104,91
599618357955508480,91
599618357963193984,94
599618357970879488,91
599618357978564864,84
599618357986250368,74
599618357993935744,60
599618358001621248,43
599618358009306624,31
599618358016992128,24
599618358024677632,16
599618358032363008,14
599618358040048512,14
599618358047733888,12
599618358055419392,14
599618358063104896,16
599618358070790272,16
599618358078475776,16
599618358086161152,21
599618358093846656,24
599618358101532032,21
599618358109217536,24
599618358116903040,29
599618358124588416,29
599618358132273920,31
599618358139959296,33
599618358147644800,31
599618358155330176,33
599618358163015680,38
599618358170701184,38
599618358178386560,38
599618358186072064,41
599618358193757440,43
599618358201442944,41
599618358209128320,41
599618358216813824,43
599618358224499328,45
599618358232184704,43
599618358239870208,43
599618358247555584,45
599618358255241088,48
599618358262926464,45
599618358270611968,45
599618358278297472,48
599618358285982848,45
599618358293668352,43
599618358301353728,48
599618358309039232,45
599618358316724608,45
599618358324410112,45
599618358332095616,48
599618358339780992,45
599618358347466496,45
599618358355151872,45
599618358362837376,48
599618358370522880,50
599618358378208256,53
599618358385893760,50
599618358393579136,50
599618358401264640,50
599618358408950016,50
599618358416635520,53
599618358424321024,53
599618358432006400,50
599618358439691904,50
599618358447377280,53
599618358455062784,53
599618358462748198,53
599618358470433664,53
599618358478119168,50
599618358485804544,53
599618358493490048,53
599618358501175424,50
599618358508860928,50
599618358516546304,53
599618358524231808,53
599618358531917312,53
599618358539602688,53
599618358547288192,55
599618358554973568,53
599618358562659072,43
599618358570344448,53
599618358578029952,79
599618358585715456,89
599618358593400832,82
599618358601086336,77
599618358608771712,62
599618358616457216,43
599618358624142720,43
599618358631828096,53
599618358639513600,48
599618358647198976,45
599618358654884480,50
599618358662569856,48
599618358670255360,48
599618358677940864,48
599618358685626240,12
599618358693311744,-79
599618358700997120,-111
599618358708682624,116
599618358716368000,548
599618358724053504,783
599618358731739008,488
599618358739424384,0
599618358747109888,-125
599618358754795264,-16
599618358762480768,21
599618358770166144,29
599618358777851648,33
599618358785537152,16
599618358793222528,19
599618358800908032,33
599618358808593408,31
599618358816278912,33
599618358823964288,41
599618358831649792,43
599618358839335296,43
599618358847020672,48
599618358854706176,53
599618358862391552,55
599618358870077056,58
599618358877762560,60
599618358885447936,65
599618358893133440,70
599618358900818816,72
599618358908504320,74
599618358916189696,79
599618358923875200,84
599618358931560704,87
599618358939246080,94
599618358946931584,96
599618358954616960,96
599618358962302464,96
599618358969987840,96
599618358977673344,91
599618358985358848,84
599618358993044224,74
599618359000729728,55
599618359008415104,36
599618359016100608,26
599618359023786027,16
599618359031471872,12
599618359039157760,7
599618359046843648,7
599618359054529536,9
599618359062215296,9
599618359069901184,12
599618359077587072,16
599618359085272960,16
599618359092958848,14
599618359100644736,14
599618359108330496,19
599618359116016384,21
599618359123702272,24
599618359131388160,26
599618359139074048,26
599618359146759936,26
599618359154445696,31
599618359162131584,33
599618359169817472,36
599618359177503360,36
599618359185189248,38
599618359192875136,36
599618359200561024,38
599618359208246784,41
599618359215932672,41
599618359223618560,38
599618359231304448,36
599618359238990336,38
599618359246676224,38
599618359254361984,38
599618359262047872,41
599618359269733760,41
599618359277419648,38
599618359285105536,38
599618359292791424,43
599618359300477184,43
599618359308163072,38
599618359315848960,38
599618359323534848,41
599618359331220736,41
599618359338906624,41
599618359346592512,43
599618359354278272,48
599618359361964160,45
599618359369650048,43
599618359377335936,43
599618359385021824,45
599618359392707712,45
599618359400393472,45
599618359408079360,45
599618359415765248,45
599618359423451136,45
599618359431137024,48
599618359438822912,45
599618359446508672,45
599618359454194560,48
599618359461880448,45
599618359469566336,43
599618359477252224,45
599618359484938112,48
599618359492623872,45
599618359500309760,45
599618359507995648,48
599618359515681536,45
599618359523367424,45
599618359531053312,48
599618359538739200,48
599618359546424960,45
599618359554110848,48
599618359561796736,48
599618359569482624,43
599618359577168512,38
599618359584854370,45
599618359592539904,65
599618359600225408,82
599618359607910784,82
599618359615596288,72
599618359623281664,58
599618359630967168,43
599618359638652544,38
599618359646338048,43
599618359654023552,45
599618359661708928,43
599618359669394432,41
599618359677079808,43
599618359684765312,45
599618359692450688,45
599618359700136192,26
599618359707821696,-50
599618359715507072,-123
599618359723192576,14
599618359730877952,415
599618359738563456,758
599618359746248960,616
599618359753934336,99
599618359761619840,-169
599618359769305216,-82
599618359776990720,-14
599618359784676096,7
599618359792361600,48
599618359800047104,31
599618359807732480,14
599618359815417984,36
599618359823103360,41
599618359830788864,33
599618359838474240,41
599618359846159744,45
599618359853845248,48
599618359861530624,50
599618359869216128,55
599618359876901504,58
599618359884587008,58
599618359892272384,62
599618359899957888,67
599618359907643392,72
599618359915328768,77
599618359923014272,79
599618359930699648,82
599618359938385152,89
599618359946070528,96
599618359953756032,101
599618359961441536,103
599618359969126912,108
599618359976812416,111
599618359984497792,108
599618359992183296,106
599618359999868672,101
599618360007554176,84
599618360015239680,62
599618360022925056,43
599618360030610560,29
599618360038295936,14
599618360045981440,7
599618360053666944,2
599618360061352320,0
599618360069037824,0
599618360076723200,0
599618360084408704,0
599618360092094080,4
599618360099779584,7
599618360107465088,4
599618360115150464,7
599618360122835968,12
599618360130521344,16
599618360138206848,16
599618360145892195,21
599618360153577728,24
599618360161263232,24
599618360168948608,29
599618360176634112,29
599618360184319488,29
599618360192004992,31
599618360199690368,33
599618360207375872,31
599618360215061376,31
599618360222746752,33
599618360230432256,36
599618360238117632,33
599618360245803136,33
599618360253488512,33
599618360261174016,31
599618360268859520,33
599618360276544896,33
599618360284230400,33
599618360291915776,36
599618360299601280,36
599618360307286784,33
599618360314972160,33
599618360322657664,36
599618360330343040,33
599618360338028544,31
599618360345713920,33
599618360353399424,36
599618360361084928,36
599618360368770304,36
599618360376455808,41
599618360384141184,38
599618360391826688,38
599618360399512064,38
599618360407197568,38
599618360414883072,38
599618360422568448,38
599618360430253952,38
599618360437939328,38
599618360445624832,41
599618360453310208,38
599618360460995712,36
599618360468681216,38
599618360476366592,38
599618360484052096,38
599618360491737472,38
599618360499422976,41
599618360507108352,38
599618360514793856,33
599618360522479360,33
599618360530164736,50
599618360537850240,72
599618360545535616,77
599618360553221120,67
599618360560906496,55
599618360568592000,38
599618360576277504,31
599618360583962880,36
599618360591648384,38
599618360599333760,36
599618360607019264,36
599618360614704768,38
599618360622390144,38
599618360630075648,38
599618360637761024,33
599618360645446528,-14
599618360653131904,-103
599618360660817408,-79
599618360668502912,217
599618360676188288,613
599618360683873792,657
599618360691559168,212
599618360699244672,-181
599618360706930020,-152
599618360714615552,-45
599618360722301056,-33
599618360729986432,38
599618360737671936,67
599618360745357312,21
599618360753042816,24
599618360760728192,50
599618360768413696,43
599618360776099200,41
599618360783784576,48
599618360791470080,50
599618360799155456,53
599618360806840960,60
599618360814526336,62
599618360822211840,65
599618360829897344,70
599618360837582720,72
599618360845268224,74
599618360852953600,82
599618360860639104,87
599618360868324608,91
599618360876009984,99
599618360883695488,103
599618360891380864,108
599618360899066368,113
599618360906751744,118
599618360914437248,123
599618360922122752,125
599618360929808128,123
599618360937493632,113
599618360945179008,99
599618360952864512,77
599618360960549888,48
599618360968235392,26
599618360975920896,12
599618360983606272,-4
599618360991291776,-12
599618360998977152,-9
599618361006662656,-7
599618361014348032,-9
599618361022033536,-9
599618361029719040,-4
599618361037404416,-2
599618361045089920,-2
599618361052775296,0
599618361060460800,2
599618361068146176,4
599618361075831680,7
599618361083517184,9
599618361091202560,16
599618361098888064,21
599618361106573440,16
599618361114258944,19
599618361121944320,24
599618361129629824,24
599618361137315328,24
599618361145000704,29
599618361152686208,31
599618361160371584,26
599618361168057088,29
599618361175742592,31
599618361183427968,31
599618361191113472,29
599618361198798848,26
599618361206484352,29
599618361214169728,29
599618361221855232,29
599618361229540736,29
599618361237226112,31
599618361244911616,31
599618361252596992,31
599618361260282496,29
599618361267967845,29
599618361275653376,33
599618361283338880,33
599618361291024256,33
599618361298709760,33
599618361306395136,31
599618361314080640,31
599618361321766016,31
599618361329451520,33
599618361337137024,33
599618361344822400,33
599618361352507904,33
599618361360193280,33
599618361367878784,36
599618361375564160,38
599618361383249664,36
599618361390935168,31
599618361398620544,36
599618361406306048,58
599618361413991424,74
599618361421676928,70
599618361429362432,60
599618361437047808,50
599618361444733312,33
599618361452418688,26
599618361460104192,33
599618361467789568,33
599618361475475072,33
599618361483160576,36
599618361490845952,31
599618361498531456,33
599618361506216832,38
599618361513902336,21
599618361521587712,-45
599618361529273216,-116
599618361536958720,-9
599618361544644096,343
599618361552329600,642
599618361560014976,490
599618361567700480,14
599618361575385856,-195
599618361583071360,-91
599618361590756864,-41
599618361598442240,-9
599618361606127744,62
599618361613813120,50
599618361621498624,16
599618361629184000,41
599618361636869504,50
599618361644555008,38
599618361652240384,45
599618361659925888,55
599618361667611264,50
599618361675296768,53
599618361682982272,60
599618361690667648,62
599618361698353152,62
599618361706038528,67
599618361713724032,72
599618361721409408,77
599618361729094912,82
599618361736780416,87
599618361744465792,94
599618361752151296,101
599618361759836672,106
599618361767522176,113
599618361775207552,118
599618361782893056,123
599618361790578560,125
599618361798263936,125
599618361805949440,123
599618361813634816,111
599618361821320320,87
599618361829005672,60
599618361836691584,36
599618361844377472,16
599618361852063360,4
599618361859749248,-4
599618361867435008,-9
599618361875120896,-9
599618361882806784,-9
599618361890492672,-9
599618361898178560,-7
599618361905864448,-4
599618361913550208,-2
599618361921236096,0
599618361928921984,0
599618361936607872,2
599618361944293760,2
599618361951979648,9
599618361959665408,12
599618361967351296,12
599618361975037184,16
599618361982723072,24
599618361990408960,21
599618361998094848,19
599618362005780736,24
599618362013466496,26
599618362021152384,29
599618362028838272,29
599618362036524160,26
599618362044210048,26
599618362051895936,33
599618362059581696,31
599618362067267584,26
599618362074953472,31
599618362082639360,31
599618362090325248,26
599618362098011136,31
599618362105696896,33
599618362113382784,31
599618362121068672,29
599618362128754560,31
599618362136440448,31
599618362144126336,33
599618362151812224,33
599618362159497984,33
599618362167183872,31
599618362174869760,31
599618362182555648,31
599618362190241536,36
599618362197927424,33
599618362205613184,31
599618362213299072,33
599618362220984960,38
599618362228670848,33
599618362236356736,24
599618362244042624,33
599618362251728384,55
599618362259414272,67
599618362267100160,62
599618362274786048,58
599618362282471936,48
599618362290157824,33
599618362297843712,24
599618362305529472,29
599618362313215360,31
599618362320901248,31
599618362328587136,33
599618362336273024,33
599618362343958912,31
599618362351644672,33
599618362359330560,29
599618362367016448,-16
599618362374702336,-96
599618362382388224,-60
599618362390074017,219
599618362397759616,555
599618362405445248,541
599618362413130752,130
599618362420816384,-161
599618362428502016,-108
599618362436187520,-31
599618362443873152,-14
599618362451558784,48
599618362459244288,55
599618362466929920,19
599618362474615552,33
599618362482301056,50
599618362489986688,38
599618362497672320,41
599618362505357824,45
599618362513043456,45
599618362520729088,50
599618362528414592,55
599618362536100224,58
599618362543785856,58
599618362551471360,60
599618362559156992,65
599618362566842624,70
599618362574528128,72
599618362582213760,74
599618362589899392,84
599618362597584896,89
599618362605270528,91
599618362612956160,99
599618362620641664,108
599618362628327296,116
599618362636012928,113
599618362643698432,111
599618362651384064,111
599618362659069696,106
599618362666755200,84
599618362674440832,55
599618362682126464,31
599618362689811968,19
599618362697497600,7
599618362705183232,-7
599618362712868736,-12
599618362720554368,-9
599618362728240000,-12
599618362735925504,-12
599618362743611136,-7
599618362751296768,-4
599618362758982272,-2
599618362766667904,-2
599618362774353536,2
599618362782039040,2
599618362789724672,4
599618362797410304,7
599618362805095808,12
599618362812781440,12
599618362820467072,12
599618362828152576,16
599618362835838208,24
599618362843523840,21
599618362851209344,21
599618362858894976,24
599618362866580608,26
599618362874266112,26
599618362881951744,26
599618362889637376,29
599618362897322880,26
599618362905008512,26
599618362912694144,29
599618362920379648,29
599618362928065280,29
599618362935750784,29
599618362943436416,29
599618362951122016,31
599618362958807808,31
599618362966493568,31
599618362974179328,31
599618362981864960,31
599618362989550720,29
599618362997236480,31
599618363004922240,33
599618363012607872,31
599618363020293632,29
599618363027979392,31
599618363035665152,31
599618363043350784,33
599618363051036544,31
599618363058722304,31
599618363066408064,36
599618363074093696,38
599618363081779456,31
599618363089465216,26
599618363097150976,45
599618363104836608,65
599618363112522368,65
599618363120208128,58
599618363127893888,55
599618363135579520,41
599618363143265280,21
599618363150951040,26
599618363158636800,31
599618363166322432,26
599618363174008192,29
599618363181693952,33
599618363189379712,33
599618363197065344,29
599618363204751104,29
599618363212436864,14
599618363220122624,-43
599618363227808256,-99
599618363235494016,24
599618363243179776,350
599618363250865536,575
599618363258551168,377
599618363266236928,-26
599618363273922688,-147
599618363281608448,-53
599618363289294080,-21
599618363296979840,9
599618363304665600,50
599618363312351360,31
599618363320036992,16
599618363327722752,31
599618363335408512,38
599618363343094272,33
599618363350779904,36
599618363358465664,41
599618363366151424,43
599618363373837184,45
599618363381522816,45
599618363389208576,53
599618363396894336,55
599618363404580096,53
599618363412265728,55
599618363419951488,65
599618363427637248,67
599618363435323008,70
599618363443008640,74
599618363450694400,82
599618363458380160,89
599618363466065920,94
599618363473751552,99
599618363481437312,101
599618363489123072,103
599618363496808832,106
599618363504494464,101
599618363512180185,87
599618363519865728,65
599618363527551232,43
599618363535236608,21
599618363542922112,7
599618363550607488,0
599618363558292992,-7
599618363565978368,-12
599618363573663872,-14
599618363581349376,-12
599618363589034752,-7
599618363596720256,-7
599618363604405632,-7
599618363612091136,-2
599618363619776512,2
599618363627462016,2
599618363635147520,2
599618363642832896,4
599618363650518400,4
599618363658203776,9
599618363665889280,9
599618363673574784,14
599618363681260160,19
599618363688945664,19
599618363696631040,19
599618363704316544,21
599618363712001920,21
599618363719687424,19
599618363727372928,24
599618363735058304,29
599618363742743808,24
599618363750429184,24
599618363758114688,26
599618363765800064,26
599618363773485568,29
599618363781171072,26
599618363788856448,26
599618363796541952,29
599618363804227328,29
599618363811912832,31
599618363819598208,31
599618363827283712,26
599618363834969216,26
599618363842654592,31
599618363850340096,29
599618363858025472,26
599618363865710976,33
599618363873396352,33
599618363881081856,26
599618363888767360,26
599618363896452736,36
599618363904138240,33
599618363911823616,31
599618363919509120,36
599618363927194496,33
599618363934880000,31
599618363942565504,38
599618363950250880,38
599618363957936384,33
599618363965621760,31
599618363973307264,33
599618363980992768,50
599618363988678144,62
599618363996363648,62
599618364004049024,60
599618364011734528,53
599618364019419904,36
599618364027105408,24
599618364034790912,26
599618364042476288,29
599618364050161792,29
599618364057847168,33
599618364065532672,33
599618364073218010,29
599618364080903936,29
599618364088589824,31
599618364096275712,16
599618364103961600,-45
599618364111647360,-96
599618364119333248,26
599618364127019136,338
599618364134705024,538
599618364142390912,343
599618364150076800,-21
599618364157762560,-128
599618364165448448,-48
599618364173134336,-14
599618364180820224,14
599618364188506112,43
599618364196192000,21
599618364203877760,14
599618364211563648,31
599618364219249536,31
599618364226935424,29
599618364234621312,36
599618364242307200,38
599618364249993088,38
599618364257678848,41
599618364265364736,43
599618364273050624,45
599618364280736512,50
599618364288422400,50
599618364296108288,50
599618364303794048,55
599618364311479936,62
599618364319165824,65
599618364326851712,70
599618364334537600,77
599618364342223488,82
599618364349909248,84
599618364357595136,89
599618364365281024,94
599618364372966912,94
599618364380652800,91
599618364388338688,87
599618364396024576,77
599618364403710336,60
599618364411396224,41
599618364419082112,24
599618364426768000,9
599618364434453888,-2
599618364442139776,-7
599618364449825536,-7
599618364457511424,-9
599618364465197312,-12
599618364472883200,-4
599618364480569088,-2
599618364488254976,-4
599618364495940736,0
599618364503626624,4
599618364511312512,2
599618364518998400,2
599618364526684288,4
599618364534370176,7
599618364542055936,7
599618364549741824,14
599618364557427712,14
599618364565113600,12
599618364572799488,14
599618364580485376,19
599618364588171264,21
599618364595857024,21
599618364603542912,21
599618364611228800,21
599618364618914688,24
599618364626600576,24
599618364634286353,21
599618364641971840,16
599618364649657344,16
599618364657342720,21
599618364665028224,24
599618364672713600,21
599618364680399104,19
599618364688084480,21
599618364695769984,24
599618364703455488,21
599618364711140864,24
599618364718826368,21
599618364726511744,21
599618364734197248,26
599618364741882624,26
599618364749568128,24
599618364757253632,26
599618364764939008,26
599618364772624512,26
599618364780309888,29
599618364787995392,31
599618364795680896,31
599618364803366272,29
599618364811051776,26
599618364818737152,29
599618364826422656,31
599618364834108032,31
599618364841793536,33
599618364849479040,31
599618364857164416,31
599618364864849920,33
599618364872535296,36
599618364880220800,33
599618364887906176,36
599618364895591680,36
599618364903277184,36
599618364910962560,36
599618364918648064,33
599618364926333440,38
599618364934018944,41
599618364941704320,33
599618364949389824,33
599618364957075328,48
599618364964760704,60
599618364972446208,62
599618364980131584,60
599618364987817088,55
599618364995502464,43
599618365003187968,33
599618365010873472,31
599618365018558848,31
599618365026244352,36
599618365033929728,36
599618365041615232,31
599618365049300608,33
599618365056986112,38
599618365064671616,38
599618365072356992,26
599618365080042496,-26
599618365087727872,-82
599618365095413376,9
599618365103098880,290
599618365110784256,497
599618365118469760,352
599618365126155136,14
599618365133840640,-111
599618365141526016,-33
599618365149211520,2
599618365156897024,16
599618365164582400,48
599618365172267904,36
599618365179953280,21
599618365187638784,38
599618365195324178,43
599618365203009664,38
599618365210695168,43
599618365218380544,48
599618365226066048,48
599618365233751424,48
599618365241436928,48
599618365249122304,53
599618365256807808,55
599618365264493312,55
599618365272178688,58
599618365279864192,62
599618365287549568,67
599618365295235072,70
599618365302920448,72
599618365310605952,79
599618365318291456,84
599618365325976832,84
599618365333662336,87
599618365341347712,94
599618365349033216,94
599618365356718720,91
599618365364404096,89
599618365372089600,82
599618365379774976,67
599618365387460480,50
599618365395145856,31
599618365402831360,19
599618365410516864,12
599618365418202240,0
599618365425887744,0
599618365433573120,4
599618365441258624,0
599618365448944000,-2
599618365456629504,4
599618365464315008,7
599618365472000384,4
599618365479685888,4
599618365487371264,7
599618365495056768,9
599618365502742144,12
599618365510427648,12
599618365518113152,12
599618365525798528,14
599618365533484032,16
599618365541169408,16
599618365548854912,19
599618365556540288,19
599618365564225792,19
599618365571911296,24
599618365579596672,26
599618365587282176,26
599618365594967552,24
599618365602653056,24
599618365610338560,26
599618365618023936,26
599618365625709440,26
599618365633394816,29
599618365641080320,26
599618365648765696,29
599618365656451200,29
599618365664136704,26
599618365671822080,26
599618365679507584,29
599618365687192960,31
599618365694878464,31
599618365702563840,29
599618365710249344,29
599618365717934848,26
599618365725620224,29
599618365733305728,33
599618365740991104,31
599618365748676608,31
599618365756362007,33
599618365764047488,29
599618365771732992,31
599618365779418368,36
599618365787103872,33
599618365794789248,33
599618365802474752,33
599618365810160128,36
599618365817845632,36
599618365825531136,31
599618365833216512,33
599618365840902016,33
599618365848587392,33
599618365856272896,33
599618365863958272,36
599618365871643776,36
599618365879329280,33
599618365887014656,31
599618365894700160,31
599618365902385536,33
599618365910071040,36
599618365917756544,38
599618365925441920,36
599618365933127424,33
599618365940812800,36
599618365948498304,36
599618365956183680,36
599618365963869184,38
599618365971554688,38
599618365979240064,36
599618365986925568,36
599618365994610944,43
599618366002296448,58
599618366009981824,67
599618366017667328,62
599618366025352832,55
599618366033038208,43
599618366040723712,31
599618366048409088,33
599618366056094592,36
599618366063779968,36
599618366071465472,33
599618366079150976,36
599618366086836352,36
599618366094521856,38
599618366102207232,41
599618366109892736,29
599618366117578112,-19
599618366125263616,-67
599618366132949120,16
599618366140634496,270
599618366148320000,466
599618366156005376,333
599618366163690880,19
599618366171376256,-96
599618366179061760,-26
599618366186747264,7
599618366194432640,26
599618366202118144,48
599618366209803520,36
599618366217489024,29
599618366225174528,45
599618366232859904,45
599618366240545408,38
599618366248230784,43
599618366255916288,48
599618366263601664,48
599618366271287168,50
599618366278972672,58
599618366286658048,55
599618366294343552,50
599618366302028928,60
599618366309714432,67
599618366317399832,62
599618366325085696,67
599618366332771584,74
599618366340457472,72
599618366348143360,74
599618366355829120,84
599618366363515008,89
599618366371200896,91
599618366378886784,94
599618366386572672,96
599618366394258560,91
599618366401944320,89
599618366409630208,84
599618366417316096,72
599618366425001984,55
599618366432687872,41
599618366440373760,26
599618366448059520,16
599618366455745408,12
599618366463431296,9
599618366471117184,9
599618366478803072,7
599618366486488960,9
599618366494174848,12
599618366501860608,14
599618366509546496,12
599618366517232384,14
599618366524918272,16
599618366532604160,16
599618366540290048,16
599618366547975808,19
599618366555661696,21
599618366563347584,24
599618366571033472,24
599618366578719360,26
599618366586405248,29
599618366594091008,26
599618366601776896,26
599618366609462784,33
599618366617148672,36
599618366624834560,31
599618366632520448,31
599618366640206336,36
599618366647892096,38
599618366655577984,36
599618366663263872,31
599618366670949760,33
599618366678635648,38
599618366686321536,38
599618366694007296,33
599618366701693184,33
599618366709379072,36
599618366717064960,38
599618366724750848,36
599618366732436736,36
599618366740122496,38
599618366747808384,41
599618366755494272,36
599618366763180160,36
599618366770866048,41
599618366778551936,38
599618366786237696,38
599618366793923584,43
599618366801609472,43
599618366809295360,38
599618366816981248,41
599618366824667136,41
599618366832353024,41
599618366840038784,41
599618366847724672,43
599618366855410560,43
599618366863096448,38
599618366870782336,41
599618366878468175,43
599618366886153728,43
599618366893839232,41
599618366901524608,41
599618366909210112,41
599618366916895488,38
599618366924580992,38
599618366932266368,38
599618366939951872,38
599618366947637376,38
599618366955322752,38
599618366963008256,38
599618366970693632,41
599618366978379136,41
599618366986064512,38
599618366993750016,41
599618367001435520,43
599618367009120896,41
599618367016806400,38
599618367024491776,41
599618367032177280,41
599618367039862784,41
599618367047548160,45
599618367055233664,43
599618367062919040,41
599618367070604544,53
599618367078289920,65
599618367085975424,67
599618367093660928,65
599618367101346304,58
599618367109031808,50
599618367116717184,38
599618367124402688,36
599618367132088064,41
599618367139773568,43
599618367147459072,38
599618367155144448,41
599618367162829952,43
599618367170515328,43
599618367178200832,45
599618367185886208,33
599618367193571712,-24
599618367201257216,-65
599618367208942592,55
599618367216628096,323
599618367224313472,473
599618367231998976,292
599618367239684352,-7
599618367247369856,-82
599618367255055360,-12
599618367262740736,12
599618367270426240,36
599618367278111616,60
599618367285797120,41
599618367293482496,33
599618367301168000,48
599618367308853504,50
599618367316538880,48
599618367324224384,50
599618367331909760,53
599618367339595264,53
599618367347280768,58
599618367354966144,62
599618367362651648,60
599618367370337024,60
599618367378022528,65
599618367385707904,70
599618367393393408,72
599618367401078912,74
599618367408764288,79
599618367416449792,84
599618367424135168,82
599618367431820672,87
599618367439506000,96
599618367447191552,101
599618367454877056,99
599618367462562432,101
599618367470247936,106
599618367477933312,99
599618367485618816,91
599618367493304192,79
599618367500989696,62
599618367508675200,48
599618367516360576,33
599618367524046080,24
599618367531731456,21
599618367539416960,16
599618367547102336,14
599618367554787840,14
599618367562473344,12
599618367570158720,14
599618367577844224,19
599618367585529600,19
599618367593215104,21
599618367600900608,21
599618367608585984,24
599618367616271488,26
599618367623956864,26
599618367631642368,26
599618367639327744,29
599618367647013248,33
599618367654698752,33
599618367662384128,33
599618367670069632,38
599618367677755008,38
599618367685440512,38
599618367693125888,41
599618367700811392,43
599618367708496896,41
599618367716182272,41
599618367723867776,43
599618367731553152,45
599618367739238656,41
599618367746924032,38
599618367754609536,41
599618367762295040,43
599618367769980416,45
599618367777665920,38
599618367785351296,38
599618367793036800,45
599618367800722176,45
599618367808407680,38
599618367816093184,41
599618367823778560,41
599618367831464064,41
599618367839149440,45
599618367846834944,45
599618367854520320,43
599618367862205824,43
599618367869891328,45
599618367877576704,45
599618367885262208,45
599618367892947584,48
599618367900633088,45
599618367908318592,43
599618367916003968,48
599618367923689472,48
599618367931374848,45
599618367939060352,48
599618367946745728,50
599618367954431232,53
599618367962116736,50
599618367969802112,45
599618367977487616,45
599618367985172992,50
599618367992858496,50
599618368000543825,45
599618368008229376,48
599618368015914880,53
599618368023600256,50
599618368031285760,48
599618368038971136,50
599618368046656640,50
599618368054342016,48
599618368062027520,50
599618368069713024,50
599618368077398400,48
599618368085083904,50
599618368092769280,53
599618368100454784,50
599618368108140160,50
599618368115825664,50
599618368123511168,50
599618368131196544,53
599618368138882048,50
599618368146567424,48
599618368154252928,55
599618368161938432,55
599618368169623808,50
599618368177309312,58
599618368184994688,74
599618368192680192,84
599618368200365568,77
599618368208051072,70
599618368215736576,60
599618368223421952,45
599618368231107456,43
599618368238792832,50
599618368246478336,53
599618368254163712,50
599618368261849216,50
599618368269534720,53
599618368277220096,50
599618368284905600,50
599618368292590976,36
599618368300276480,-16
599618368307961856,-65
599618368315647360,33
599618368323332864,306
599618368331018240,507
599618368338703744,355
599618368346389120,14
599618368354074624,-94
599618368361760000,-14
599618368369445504,12
599618368377131008,31
599618368384816384,70
599618368392501888,53
599618368400187264,33
599618368407872768,53
599618368415558144,60
599618368423243648,50
599618368430929152,58
599618368438614528,62
599618368446300032,60
599618368453985408,62
599618368461670912,72
599618368469356416,72
599618368477041792,67
599618368484727296,72
599618368492412672,82
599618368500098176,82
599618368507783552,79
599618368515469056,82
599618368523154560,89
599618368530839936,96
599618368538525440,101
599618368546210816,103
599618368553896320,106
599618368561581650,108
599618368569267584,111
599618368576953472,111
599618368584639360,108
599618368592325248,103
599618368600011008,91
599618368607696896,77
599618368615382784,58
599618368623068672,41
599618368630754560,31
599618368638440448,21
599618368646126208,16
599618368653812096,19
599618368661497984,16
599618368669183872,12
599618368676869760,14
599618368684555648,16
599618368692241408,19
599618368699927296,19
599618368707613184,21
599618368715299072,24
599618368722984960,24
599618368730670848,26
599618368738356736,29
599618368746042496,29
599618368753728384,31
599618368761414272,36
599618368769100160,36
599618368776786048,33
599618368784471936,36
599618368792157696,41
599618368799843584,38
599618368807529472,38
599618368815215360,43
599618368822901248,43
599618368830587136,41
599618368838272896,41
599618368845958784,41
599618368853644672,43
599618368861330560,43
599618368869016448,41
599618368876702336,43
599618368884388224,45
599618368892073984,43
599618368899759872,41
599618368907445760,43
599618368915131648,45
599618368922817536,43
599618368930503424,43
599618368938189184,43
599618368945875072,43
599618368953560960,45
599618368961246848,48
599618368968932736,45
599618368976618624,43
599618368984304384,43
599618368991990272,45
599618368999676160,48
599618369007362048,48
599618369015047936,45
599618369022733824,43
599618369030419712,45
599618369038105472,48
599618369045791360,45
599618369053477248,43
599618369061163136,45
599618369068849024,48
599618369076534912,45
599618369084220672,48
599618369091906560,48
599618369099592448,45
599618369107278336,48
599618369114964224,50
599618369122649997,48
599618369130335488,45
599618369138020992,48
599618369145706368,48
599618369153391872,45
599618369161077248,45
599618369168762752,48
599618369176448128,48
599618369184133632,50
599618369191819136,48
599618369199504512,48
599618369207190016,48
599618369214875392,48
599618369222560896,41
599618369230246272,50
599618369237931776,72
599618369245617280,77
599618369253302656,70
599618369260988160,62
599618369268673536,53
599618369276359040,38
599618369284044544,33
599618369291729920,43
599618369299415424,43
599618369307100800,38
599618369314786304,41
599618369322471680,45
599618369330157184,48
599618369337842688,48
599618369345528064,26
599618369353213568,-43
599618369360898944,-70
599618369368584448,106
599618369376269824,444
599618369383955328,594
599618369391640832,319
599618369399326208,-48
599618369407011712,-101
599618369414697088,-9
599618369422382592,12
599618369430067968,43
599618369437753472,65
599618369445438976,38
599618369453124352,36
599618369460809856,53
599618369468495232,50
599618369476180736,50
599618369483866112,62
599618369491551616,62
599618369499237120,60
599618369506922496,65
599618369514608000,67
599618369522293376,65
599618369529978880,70
599618369537664256,74
599618369545349760,74
599618369553035264,77
599618369560720640,84
599618369568406144,87
599618369576091520,87
599618369583777024,94
599618369591462528,99
599618369599147904,101
599618369606833408,108
599618369614518784,116
599618369622204288,116
599618369629889664,116
599618369637575168,116
599618369645260672,106
599618369652946048,91
599618369660631552,72
599618369668316928,50
599618369676002432,36
599618369683687822,24
599618369691373312,12
599618369699058816,4
599618369706744192,7
599618369714429696,7
599618369722115072,4
599618369729800576,7
599618369737485952,9
599618369745171456,9
599618369752856960,9
599618369760542336,9
599618369768227840,14
599618369775913216,14
599618369783598720,16
599618369791284096,19
599618369798969600,19
599618369806655104,24
599618369814340480,26
599618369822025984,26
599618369829711360,29
599618369837396864,29
599618369845082368,31
599618369852767744,36
599618369860453248,36
599618369868138624,31
599618369875824128,31
599618369883509504,33
599618369891195008,33
599618369898880512,33
599618369906565888,33
599618369914251392,33
599618369921936768,33
599618369929622272,33
599618369937307648,33
599618369944993152,33
599618369952678656,33
599618369960364032,33
599618369968049536,36
599618369975734912,36
599618369983420416,33
599618369991105792,36
599618369998791296,36
599618370006476800,36
599618370014162176,36
599618370021847680,41
599618370029533056,38
599618370037218560,36
599618370044903936,38
599618370052589440,41
599618370060274944,41
599618370067960320,36
599618370075645824,33
599618370083331200,38
599618370091016704,38
599618370098702080,36
599618370106387584,36
599618370114073088,38
599618370121758464,38
599618370129443968,38
599618370137129344,36
599618370144814848,38
599618370152500352,38
599618370160185728,38
599618370167871232,38
599618370175556608,38
599618370183242112,38
599618370190927488,41
599618370198612992,38
599618370206298496,38
599618370213983872,41
599618370221669376,36
599618370229354752,31
599618370237040256,45
599618370244725647,67
599618370252411520,72
599618370260097408,62
599618370267783296,58
599618370275469184,45
599618370283154944,29
599618370290840832,29
599618370298526720,36
599618370306212608,36
599618370313898496,33
599618370321584384,31
599618370329270144,33
599618370336956032,33
599618370344641920,33
599618370352327808,4
599618370360013696,-74
599618370367699584,-94
599618370375385344,118
599618370383071232,485
599618370390757120,628
599618370398443008,311
599618370406128896,-79
599618370413814784,-118
599618370421500672,-19
599618370429186432,-2
599618370436872320,24
599618370444558208,43
599618370452244096,19
599618370459929984,14
599618370467615872,31
599618370475301632,33
599618370482987520,31
599618370490673408,36
599618370498359296,38
599618370506045184,41
599618370513731072,45
599618370521416832,48
599618370529102720,45
599618370536788608,50
599618370544474496,58
599618370552160384,58
599618370559846272,60
599618370567532160,67
599618370575217920,65
599618370582903808,67
599618370590589696,77
599618370598275584,84
599618370605961472,87
599618370613647360,94
599618370621333120,96
599618370629019008,96
599618370636704896,96
599618370644390784,94
599618370652076672,89
599618370659762560,74
599618370667448320,55
599618370675134208,33
599618370682820096,14
599618370690505984,4
599618370698191872,0
599618370705877760,-7
599618370713563520,-9
599618370721249408,-9
599618370728935296,-7
599618370736621184,-7
599618370744307072,-2
599618370751992960,0
599618370759678848,-2
599618370767364608,0
599618370775050496,0
599618370782736384,4
599618370790422272,7
599618370798108160,7
599618370805793990,7
599618370813479552,12
599618370821165056,14
599618370828850432,14
599618370836535936,16
599618370844221312,19
599618370851906816,19
599618370859592192,19
599618370867277696,21
599618370874963200,19
599618370882648576,16
599618370890334080,21
599618370898019456,24
599618370905704960,21
599618370913390336,21
599618370921075840,21
599618370928761344,21
599618370936446720,21
599618370944132224,21
599618370951817600,21
599618370959503104,21
599618370967188608,21
599618370974873984,26
599618370982559488,26
599618370990244864,26
599618370997930368,29
599618371005615744,31
599618371013301248,29
599618371020986752,29
599618371028672128,29
599618371036357632,31
599618371044043008,31
599618371051728512,31
599618371059413888,33
599618371067099392,33
599618371074784896,33
599618371082470272,33
599618371090155776,33
599618371097841152,33
599618371105526656,33
599618371113212032,33
599618371120897536,33
599618371128583040,36
599618371136268416,38
599618371143953920,36
599618371151639296,33
599618371159324800,31
599618371167010176,33
599618371174695680,38
599618371182381184,33
599618371190066560,33
599618371197752064,38
599618371205437440,36
599618371213122944,29
599618371220808320,36
599618371228493824,58
599618371236179328,70
599618371243864704,62
599618371251550208,55
599618371259235584,48
599618371266921088,31
599618371274606592,24
599618371282291968,31
599618371289977472,33
599618371297662848,29
599618371305348352,29
599618371313033728,31
599618371320719232,31
599618371328404736,31
599618371336090112,7
599618371343775616,-70
599618371351460992,-118
599618371359146496,48
599618371366831815,432
599618371374517760,679
599618371382203648,451
599618371389889536,4
599618371397575424,-135
599618371405261184,-31
599618371412947072,4
599618371420632960,4
599618371428318848,19
599618371436004736,9
599618371443690624,4
599618371451376384,16
599618371459062272,19
599618371466748160,16
599618371474434048,21
599618371482119936,24
599618371489805824,26
599618371497491584,29
599618371505177472,36
599618371512863360,36
599618371520549248,36
599618371528235136,41
599618371535921024,45
599618371543606912,45
599618371551292672,48
599618371558978560,55
599618371566664448,58
599618371574350336,58
599618371582036224,65
599618371589722112,72
599618371597407872,72
599618371605093760,79
599618371612779648,82
599618371620465536,79
599618371628151424,79
599618371635837312,77
599618371643523072,65
599618371651208960,48
599618371658894848,31
599618371666580736,16
599618371674266624,7
599618371681952512,0
599618371689638400,-4
599618371697324160,-7
599618371705010048,-7
599618371712695936,-7
599618371720381824,-4
599618371728067712,-2
599618371735753600,-2
599618371743439360,0
599618371751125248,2
599618371758811136,2
599618371766497024,4
599618371774182912,7
599618371781868800,7
599618371789554560,7
599618371797240448,9
599618371804926336,12
599618371812612224,14
599618371820298112,16
599618371827984000,16
599618371835669760,16
599618371843355648,19
599618371851041536,21
599618371858727424,21
599618371866413312,21
599618371874099200,21
599618371881785088,21
599618371889470848,24
599618371897156736,24
599618371904842624,21
599618371912528512,21
599618371920214400,21
599618371927900158,21
599618371935585664,21
599618371943271168,24
599618371950956544,24
599618371958642048,24
599618371966327424,21
599618371974012928,21
599618371981698304,24
599618371989383808,24
599618371997069312,21
599618372004754688,21
599618372012440192,24
599618372020125568,26
599618372027811072,24
599618372035496448,24
599618372043181952,26
599618372050867456,24
599618372058552832,21
599618372066238336,24
599618372073923712,26
599618372081609216,26
599618372089294720,26
599618372096980096,26
599618372104665600,26
599618372112350976,26
599618372120036480,26
599618372127721856,29
599618372135407360,31
599618372143092864,29
599618372150778240,31
599618372158463744,33
599618372166149120,36
599618372173834624,33
599618372181520000,33
599618372189205504,36
599618372196891008,33
599618372204576384,36
599618372212261888,38
599618372219947264,33
599618372227632768,26
599618372235318144,33
599618372243003648,55
599618372250689152,67
599618372258374528,60
599618372266060032,53
599618372273745408,41
599618372281430912,21
599618372289116288,19
599618372296801792,26
599618372304487296,26
599618372312172672,21
599618372319858176,24
599618372327543552,26
599618372335229056,24
599618372342914560,21
599618372350599936,-7
599618372358285440,-94
599618372365970816,-130
599618372373656320,82
599618372381341696,497
599618372389027200,727
599618372396712704,451
599618372404398080,-12
599618372412083584,-135
599618372419768960,-29
599618372427454464,4
599618372435139840,2
599618372442825344,4
599618372450510848,-4
599618372458196224,-2
599618372465881728,7
599618372473567104,7
599618372481252608,9
599618372488937987,14
599618372496623872,16
599618372504309760,19
599618372511995648,24
599618372519681536,26
599618372527367296,29
599618372535053184,33
599618372542739072,36
599618372550424960,38
599618372558110848,43
599618372565796736,43
599618372573482496,45
599618372581168384,53
599618372588854272,55
599618372596540160,60
599618372604226048,67
599618372611911936,70
599618372619597696,72
599618372627283584,74
599618372634969472,77
599618372642655360,74
599618372650341248,72
599618372658027136,62
599618372665713024,45
599618372673398784,29
599618372681084672,14
599618372688770560,4
599618372696456448,-4
599618372704142336,-7
599618372711828224,-9
599618372719513984,-12
599618372727199872,-9
599618372734885760,-4
599618372742571648,-7
599618372750257536,-4
599618372757943424,-2
599618372765629184,0
599618372773315072,2
599618372781000960,2
599618372788686848,4
599618372796372736,7
599618372804058624,9
599618372811744512,12
599618372819430272,14
599618372827116160,14
599618372834802048,14
599618372842487936,16
599618372850173824,19
599618372857859712,19
599618372865545472,16
599618372873231360,19
599618372880917248,21
599618372888603136,19
599618372896289024,19
599618372903974912,21
599618372911660672,24
599618372919346560,21
599618372927032448,21
599618372934718336,21
599618372942404224,21
599618372950090112,21
599618372957775872,21
599618372965461760,21
599618372973147648,21
599618372980833536,24
599618372988519424,24
599618372996205312,24
599618373003891200,24
599618373011576960,24
599618373019262848,21
599618373026948736,26
599618373034634624,26
599618373042320512,24
599618373050006330,24
599618373057691776,26
599618373065377280,24
599618373073062656,26
599618373080748160,26
599618373088433536,24
599618373096119040,26
599618373103804416,26
599618373111489920,26
599618373119175424,26
599618373126860800,26
599618373134546304,26
599618373142231680,29
599618373149917184,29
599618373157602560,26
599618373165288064,26
599618373172973568,29
599618373180658944,29
599618373188344448,29
599618373196029824,26
599618373203715328,29
599618373211400832,29
599618373219086208,29
599618373226771712,29
599618373234457088,29
599618373242142592,31
599618373249827968,29
599618373257513472,21
599618373265198976,36
599618373272884352,60
599618373280569856,70
599618373288255232,62
599618373295940736,53
599618373303626112,41
599618373311311616,21
599618373318997120,21
599618373326682496,31
599618373334368000,29
599618373342053376,26
599618373349738880,31
599618373357424256,31
599618373365109760,29
599618373372795264,26
599618373380480640,-12
599618373388166144,-103
599618373395851520,-118
599618373403537024,137
599618373411222400,570
599618373418907904,751
599618373426593408,408
599618373434278784,-58
599618373441964288,-142
599618373449649664,-33
599618373457335168,0
599618373465020544,9
599618373472706048,7
599618373480391552,-9
599618373488076928,0
599618373495762432,9
599618373503447808,7
599618373511133312,12
599618373518818816,19
599618373526504192,21
599618373534189696,21
599618373541875072,26
599618373549560576,31
599618373557245952,33
599618373564931456,36
599618373572616960,41
599618373580302336,43
599618373587987840,48
599618373595673216,50
599618373603358720,53
599618373611044155,60
599618373618729984,65
599618373626415872,70
599618373634101760,74
599618373641787648,77
599618373649473408,82
599618373657159296,82
599618373664845184,84
599618373672531072,82
599618373680216960,74
599618373687902848,62
599618373695588608,45
599618373703274496,29
599618373710960384,14
599618373718646272,2
599618373726332160,-4
599618373734018048,-12
599618373741703808,-14
599618373749389696,-12
599618373757075584,-9
599618373764761472,-9
599618373772447360,-7
599618373780133248,-7
599618373787819136,-4
599618373795504896,0
599618373803190784,0
599618373810876672,2
599618373818562560,4
599618373826248448,7
599618373833934336,9
599618373841620096,12
599618373849305984,9
599618373856991872,12
599618373864677760,16
599618373872363648,16
599618373880049536,16
599618373887735296,19
599618373895421184,19
599618373903107072,19
599618373910792960,19
599618373918478848,19
599618373926164736,19
599618373933850624,21
599618373941536384,19
599618373949222272,21
599618373956908160,24
599618373964594048,21
599618373972279936,21
599618373979965824,24
599618373987651584,24
599618373995337472,24
599618374003023360,21
599618374010709248,21
599618374018395136,24
599618374026081024,26
599618374033766784,26
599618374041452672,24
599618374049138560,24
599618374056824448,24
599618374064510336,26
599618374072196224,26
599618374079881984,24
599618374087567872,26
599618374095253760,26
599618374102939648,26
599618374110625536,26
599618374118311424,24
599618374125997312,24
599618374133683072,26
599618374141368960,29
599618374149054848,29
599618374156740736,26
599618374164426624,29
599618374172112498,29
599618374179798016,29
599618374187483520,31
599618374195168896,31
599618374202854400,31
599618374210539776,31
599618374218225280,31
599618374225910656,31
599618374233596160,31
599618374241281664,31
599618374248967040,33
599618374256652544,29
599618374264337920,21
599618374272023424,29
599618374279708800,53
599618374287394304,70
599618374295079808,67
599618374302765184,58
599618374310450688,43
599618374318136064,24
599618374325821568,21
599618374333507072,29
599618374341192448,29
599618374348877952,26
599618374356563328,29
599618374364248832,31
599618374371934208,31
599618374379619712,31
599618374387305216,9
599618374394990592,-72
599618374402676096,-130
599618374410361472,45
599618374418046976,464
599618374425732352,763
599618374433417856,555
599618374441103360,43
599618374448788736,-171
599618374456474240,-70
599618374464159616,0
599618374471845120,16
599618374479530496,24
599618374487216000,4
599618374494901504,2
599618374502586880,16
599618374510272384,16
599618374517957760,19
599618374525643264,26
599618374533328640,29
599618374541014144,31
599618374548699648,36
599618374556385024,38
599618374564070528,41
599618374571755904,45
599618374579441408,48
599618374587126784,50
599618374594812288,55
599618374602497792,58
599618374610183168,60
599618374617868672,65
599618374625554048,72
599618374633239552,79
599618374640925056,82
599618374648610432,87
599618374656295936,91
599618374663981312,91
599618374671666816,91
599618374679352192,91
599618374687037696,89
599618374694723200,79
599618374702408576,62
599618374710094080,41
599618374717779456,26
599618374725464960,16
599618374733150323,7
599618374740835840,2
599618374748521344,-2
599618374756206720,-4
599618374763892224,-2
599618374771577600,0
599618374779263104,2
599618374786948480,4
599618374794633984,4
599618374802319488,7
599618374810004864,9
599618374817690368,12
599618374825375744,14
599618374833061248,14
599618374840746624,14
599618374848432128,19
599618374856117632,21
599618374863803008,19
599618374871488512,21
599618374879173888,24
599618374886859392,26
599618374894544896,26
599618374902230272,26
599618374909915776,26
599618374917601152,24
599618374925286656,26
599618374932972032,29
599618374940657536,26
599618374948343040,26
599618374956028416,26
599618374963713920,26
599618374971399296,26
599618374979084800,29
599618374986770176,29
599618374994455680,26
599618375002141184,24
599618375009826560,29
599618375017512064,29
599618375025197440,26
599618375032882944,26
599618375040568320,26
599618375048253824,26
599618375055939328,26
599618375063624704,29
599618375071310208,29
599618375078995584,29
599618375086681088,26
599618375094366464,29
599618375102051968,31
599618375109737472,29
599618375117422848,26
599618375125108352,29
599618375132793728,31
599618375140479232,31
599618375148164608,31
599618375155850112,33
599618375163535616,31
599618375171220992,33
599618375178906496,33
599618375186591872,33
599618375194277376,33
599618375201962880,31
599618375209648256,33
599618375217333760,33
599618375225019136,33
599618375232704640,36
599618375240390016,33
599618375248075520,26
599618375255761024,29
599618375263446400,53
599618375271131904,74
599618375278817280,72
599618375286502784,65
599618375294188148,50
599618375301874048,31
599618375309559936,26
599618375317245824,38
599618375324931712,36
599618375332617472,29
599618375340303360,33
599618375347989248,38
599618375355675136,33
599618375363361024,31
599618375371046912,16
599618375378732672,-58
599618375386418560,-128
599618375394104448,21
599618375401790336,430
599618375409476224,761
599618375417162112,592
599618375424847872,62
599618375432533760,-195
599618375440219648,-103
599618375447905536,-29
599618375455591424,7
599618375463277312,41
599618375470963200,16
599618375478648960,4
599618375486334848,26
599618375494020736,31
599618375501706624,26
599618375509392512,31
599618375517078400,38
599618375524764160,38
599618375532450048,41
599618375540135936,43
599618375547821824,48
599618375555507712,53
599618375563193600,55
599618375570879360,58
599618375578565248,60
599618375586251136,67
599618375593937024,72
599618375601622912,72
599618375609308800,77
599618375616994688,87
599618375624680448,94
599618375632366336,96
599618375640052224,101
599618375647738112,103
599618375655424000,103
599618375663109888,103
599618375670795648,96
599618375678481536,84
599618375686167424,67
599618375693853312,45
599618375701539200,24
599618375709225088,12
599618375716910848,2
599618375724596736,-7
599618375732282624,-14
599618375739968512,-14
599618375747654400,-12
599618375755340288,-12
599618375763026176,-9
599618375770711936,-7
599618375778397824,-4
599618375786083712,-2
599618375793769600,0
599618375801455488,4
599618375809141376,4
599618375816827136,7
599618375824513024,12
599618375832198912,14
599618375839884800,14
599618375847570688,16
599618375855256495,21
599618375862941952,19
599618375870627456,19
599618375878312832,21
599618375885998336,21
599618375893683712,21
599618375901369216,24
599618375909054592,24
599618375916740096,21
599618375924425600,21
599618375932110976,21
599618375939796480,21
599618375947481856,19
599618375955167360,21
599618375962852736,21
599618375970538240,21
599618375978223744,21
599618375985909120,24
599618375993594624,24
599618376001280000,21
599618376008965504,21
599618376016651008,24
599618376024336384,26
599618376032021888,24
599618376039707264,21
599618376047392768,24
599618376055078144,26
599618376062763648,26
599618376070449152,26
599618376078134528,26
599618376085820032,26
599618376093505408,26
599618376101190912,26
599618376108876288,29
599618376116561792,29
599618376124247296,29
599618376131932672,24
599618376139618176,21
599618376147303552,36
599618376154989056,60
599618376162674432,65
599618376170359936,58
599618376178045440,48
599618376185730816,33
599618376193416320,19
599618376201101696,19
599618376208787200,29
599618376216472576,26
599618376224158080,24
599618376231843584,26
599618376239528960,26
599618376247214464,26
599618376254899840,29
599618376262585344,4
599618376270270720,-79
599618376277956224,-120
599618376285641728,79
599618376293327104,480
599618376301012608,676
599618376308697984,352
599618376316383488,-135
599618376324068992,-219
599618376331754368,-91
599618376339439872,-65
599618376347125248,2
599618376354810752,70
599618376362496128,29
599618376370181632,9
599618376377867136,38
599618376385552512,41
599618376393238016,31
599618376400923392,41
599618376408608896,45
599618376416294320,43
599618376423979904,48
599618376431665536,53
599618376439351168,53
599618376447036928,58
599618376454722560,62
599618376462408192,65
599618376470093824,70
599618376477779456,74
599618376485465216,79
599618376493150848,87
599618376500836480,94
599618376508522112,96
599618376516207872,101
599618376523893504,108
599618376531579136,116
599618376539264768,116
599618376546950400,118
599618376554636160,116
599618376562321792,106
599618376570007424,84
599618376577693056,55
599618376585378688,29
599618376593064448,9
599618376600750080,-7
599618376608435712,-19
599618376616121344,-24
599618376623806976,-26
599618376631492736,-31
599618376639178368,-29
599618376646864000,-24
599618376654549632,-21
599618376662235264,-21
599618376669921024,-16
599618376677606656,-12
599618376685292288,-12
599618376692977920,-9
599618376700663680,-4
599618376708349312,-2
599618376716034944,0
599618376723720576,2
599618376731406208,4
599618376739091968,4
599618376746777600,7
599618376754463232,7
599618376762148864,7
599618376769834496,9
599618376777520256,7
599618376785205888,7
599618376792891520,9
599618376800577152,12
599618376808262784,9
599618376815948544,9
599618376823634176,9
599618376831319808,9
599618376839005440,9
599618376846691072,12
599618376854376832,12
599618376862062464,12
599618376869748096,12
599618376877433728,12
599618376885119488,12
599618376892805120,16
599618376900490752,16
599618376908176384,16
599618376915862016,16
599618376923547776,14
599618376931233408,16
599618376938919040,19
599618376946604672,14
599618376954290304,14
599618376961976064,33
599618376969661696,53
599618376977347405,50
599618376985033088,45
599618376992718720,41
599618377000404352,21
599618377008090112,7
599618377015775744,12
599618377023461376,19
599618377031147008,14
599618377038832640,12
599618377046518400,14
599618377054204032,16
599618377061889664,16
599618377069575296,16
599618377077261056,-7
599618377084946688,-84
599618377092632320,-123
599618377100317952,65
599618377108003584,437
599618377115689344,609
599618377123374976,299
599618377131060608,-140
599618377138746240,-203
599618377146431872,-82
599618377154117632,-60
599618377161803264,0
599618377169488896,62
599618377177174528,24
599618377184860160,4
599618377192545920,36
599618377200231552,36
599618377207917184,29
599618377215602816,38
599618377223288448,41
599618377230974208,41
599618377238659840,45
599618377246345472,45
599618377254031104,48
599618377261716864,55
599618377269402496,58
599618377277088128,58
599618377284773760,65
599618377292459392,72
599618377300145152,77
599618377307830784,82
599618377315516416,89
599618377323202048,94
599618377330887680,99
599618377338573440,106
599618377346259072,111
599618377353944704,113
599618377361630336,113
599618377369315968,106
599618377377001728,91
599618377384687360,74
599618377392372992,45
599618377400058624,19
599618377407744256,4
599618377415430016,-9
599618377423115648,-19
599618377430801280,-21
599618377438486912,-24
599618377446172672,-21
599618377453858304,-21
599618377461543936,-21
599618377469229568,-19
599618377476915200,-12
599618377484600960,-12
599618377492286592,-12
599618377499972224,-9
599618377507657856,-7
599618377515343488,-4
599618377523029248,0
599618377530714880,4
599618377538400488,4
599618377546086016,4
599618377553771520,7
599618377561457024,12
599618377569142528,12
599618377576828032,12
599618377584513664,14
599618377592199168,16
599618377599884672,14
599618377607570176,14
599618377615255680,14
599618377622941184,14
599618377630626688,14
599618377638312192,12
599618377645997824,14
599618377653683328,14
599618377661368832,14
599618377669054336,14
599618377676739840,14
599618377684425344,19
599618377692110848,19
599618377699796352,16
599618377707481984,31
599618377715167488,50
599618377722852992,50
599618377730538496,48
599618377738224000,43
599618377745909504,24
599618377753595008,12
599618377761280512,14
599618377768966016,16
599618377776651648,14
599618377784337152,16
599618377792022656,19
599618377799708160,19
599618377807393664,19
599618377815079168,19
599618377822764672,9
599618377830450176,-41
599618377838135808,-116
599618377845821312,-48
599618377853506816,261
599618377861192320,570
599618377868877824,480
599618377876563328,43
599618377884248832,-193
599618377891934336,-116
599618377899619968,-53
599618377907305472,-19
599618377914990976,45
599618377922676480,36
599618377930361984,4
599618377938047488,24
599618377945732992,36
599618377953418496,26
599618377961104000,31
599618377968789632,41
599618377976475136,41
599618377984160640,41
599618377991846144,43
599618377999531648,45
599618378007217152,50
599618378014902656,53
599618378022588160,55
599618378030273792,60
599618378037959296,65
599618378045644800,67
599618378053330304,70
599618378061015808,79
599618378068701312,87
599618378076386816,91
599618378084072320,99
599618378091757952,103
599618378099443401,103
599618378107128832,103
599618378114814208,96
599618378122499584,89
599618378130184960,72
599618378137870336,41
599618378145555712,14
599618378153241088,2
599618378160926464,-9
599618378168611840,-21
599618378176297216,-24
599618378183982592,-26
599618378191667968,-29
599618378199353344,-24
599618378207038720,-19
599618378214724096,-19
599618378222409472,-16
599618378230094848,-12
599618378237780352,-14
599618378245465728,-12
599618378253151104,-9
599618378260836480,-9
599618378268521856,-4
599618378276207232,0
599618378283892608,0
599618378291577984,0
599618378299263360,4
599618378306948736,9
599618378314634112,7
599618378322319488,7
599618378330004864,9
599618378337690240,12
599618378345375616,9
599618378353060992,9
599618378360746368,9
599618378368431744,12
599618378376117120,12
599618378383802496,9
599618378391487872,9
599618378399173248,14
599618378406858624,14
599618378414544000,12
599618378422229376,14
599618378429914752,16
599618378437600128,12
599618378445285504,14
599618378452970880,12
599618378460656256,19
599618378468341632,38
599618378476027008,50
599618378483712512,45
599618378491397888,41
599618378499083264,29
599618378506768640,12
599618378514454016,9
599618378522139392,14
599618378529824768,12
599618378537510144,12
599618378545195520,14
599618378552880896,14
599618378560566272,14
599618378568251648,16
599618378575937024,16
599618378583622400,-4
599618378591307776,-74
599618378598993152,-116
599618378606678528,45
599618378614363904,384
599618378622049280,565
599618378629734656,316
599618378637420032,-82
599618378645105408,-166
599618378652790784,-67
599618378660476138,-33
599618378668161664,7
599618378675847168,41
599618378683532544,7
599618378691218048,0
599618378698903424,24
599618378706588928,24
599618378714274304,16
599618378721959808,26
599618378729645312,29
599618378737330688,24
599618378745016192,29
599618378752701568,36
599618378760387072,38
599618378768072448,41
599618378775757952,43
599618378783443456,45
599618378791128832,50
599618378798814336,55
599618378806499712,58
599618378814185216,65
599618378821870720,70
599618378829556096,74
599618378837241600,79
599618378844926976,84
599618378852612480,87
599618378860297856,87
599618378867983360,87
599618378875668864,82
599618378883354240,70
599618378891039744,50
599618378898725120,29
599618378906410624,12
599618378914096000,0
599618378921781504,-9
599618378929467008,-16
599618378937152384,-19
599618378944837888,-14
599618378952523264,-14
599618378960208768,-14
599618378967894144,-14
599618378975579648,-12
599618378983265152,-7
599618378990950528,-2
599618378998636032,-4
599618379006321408,-7
599618379014006912,-2
599618379021692288,2
599618379029377792,0
599618379037063296,0
599618379044748672,9
599618379052434176,9
599618379060119552,7
599618379067805056,12
599618379075490560,14
599618379083175936,14
599618379090861440,16
599618379098546816,16
599618379106232320,14
599618379113917696,14
599618379121603200,16
599618379129288704,14
599618379136974080,16
599618379144659584,19
599618379152344960,14
599618379160030464,12
599618379167715840,16
599618379175401344,19
599618379183086848,14
599618379190772224,14
599618379198457728,19
599618379206143104,19
599618379213828608,16
599618379221513967,19
599618379229199488,21
599618379236884992,19
599618379244570368,19
599618379252255872,19
599618379259941248,21
599618379267626752,21
599618379275312128,19
599618379282997632,21
599618379290683136,24
599618379298368512,21
599618379306054016,26
599618379313739392,45
599618379321424896,55
599618379329110272,53
599618379336795776,48
599618379344481280,41
599618379352166656,21
599618379359852160,12
599618379367537536,19
599618379375223040,21
599618379382908544,19
599618379390593920,19
599618379398279424,21
599618379405964800,21
599618379413650304,19
599618379421335680,19
599618379429021184,14
599618379436706688,-33
599618379444392064,-101
599618379452077568,-45
599618379459762944,227
599618379467448448,514
599618379475133824,449
599618379482819328,70
599618379490504832,-149
599618379498190208,-87
599618379505875712,-26
599618379513561088,-4
599618379521246592,33
599618379528931968,26
599618379536617472,4
599618379544302976,21
599618379551988352,29
599618379559673856,21
599618379567359232,26
599618379575044736,29
599618379582730112,29
599618379590415616,33
599618379598101120,33
599618379605786496,33
599618379613472000,38
599618379621157376,45
599618379628842880,43
599618379636528256,43
599618379644213760,50
599618379651899264,53
599618379659584640,55
599618379667270144,62
599618379674955520,70
599618379682641024,72
599618379690326528,72
599618379698011904,74
599618379705697408,77
599618379713382784,77
599618379721068288,77
599618379728753664,72
599618379736439168,58
599618379744124672,43
599618379751810048,24
599618379759495552,7
599618379767180928,-2
599618379774866432,-7
599618379782551792,-12
599618379790237312,-16
599618379797922816,-12
599618379805608192,-7
599618379813293696,-14
599618379820979072,-14
599618379828664576,-4
599618379836349952,-2
599618379844035456,-7
599618379851720960,-12
599618379859406336,-7
599618379867091840,-4
599618379874777216,-7
599618379882462720,-4
599618379890148096,2
599618379897833600,2
599618379905519104,4
599618379913204480,7
599618379920889984,9
599618379928575360,9
599618379936260864,9
599618379943946368,9
599618379951631744,9
599618379959317248,9
599618379967002624,14
599618379974688128,14
599618379982373504,12
599618379990059008,14
599618379997744512,16
599618380005429888,16
599618380013115392,14
599618380020800768,14
599618380028486272,16
599618380036171648,19
599618380043857152,16
599618380051542656,16
599618380059228032,21
599618380066913536,21
599618380074598912,12
599618380082284416,14
599618380089969792,24
599618380097655296,24
599618380105340800,21
599618380113026176,19
599618380120711680,19
599618380128397056,21
599618380136082560,21
599618380143767936,21
599618380151453440,21
599618380159138944,21
599618380166824320,21
599618380174509824,21
599618380182195200,26
599618380189880704,26
599618380197566080,21
599618380205251584,21
599618380212937088,24
599618380220622464,24
599618380228307968,24
599618380235993344,26
599618380243678848,31
599618380251364352,36
599618380259049728,36
599618380266735232,36
599618380274420608,33
599618380282106112,36
599618380289791488,36
599618380297476992,33
599618380305162496,31
599618380312847872,33
599618380320533376,36
599618380328218752,31
599618380335904256,29
599618380343589617,33
599618380351275136,36
599618380358960640,31
599618380366646016,29
599618380374331520,33
599618380382016896,31
599618380389702400,29
599618380397387776,33
599618380405073280,33
599618380412758784,26
599618380420444160,24
599618380428129664,38
599618380435815040,53
599618380443500544,55
599618380451185920,50
599618380458871424,48
599618380466556928,36
599618380474242304,21
599618380481927808,19
599618380489613184,26
599618380497298688,29
599618380504984192,29
599618380512669568,29
599618380520355072,31
599618380528040448,31
599618380535725952,31
599618380543411328,16
599618380551096832,-43
599618380558782336,-91
599618380566467712,31
599618380574153216,338
599618380581838592,538
599618380589524096,355
599618380597209472,-9
599618380604894976,-128
599618380612580480,-38
599618380620265856,-2
599618380627951360,12
599618380635636736,36
599618380643322240,21
599618380651007616,9
599618380658693120,24
599618380666378624,31
599618380674064000,29
599618380681749504,31
599618380689434880,31
599618380697120384,33
599618380704805760,36
599618380712491264,36
599618380720176768,36
599618380727862144,38
599618380735547648,45
599618380743233024,45
599618380750918528,43
599618380758603904,50
599618380766289408,58
599618380773974912,55
599618380781660288,58
599618380789345792,62
599618380797031168,65
599618380804716672,70
599618380812402176,72
599618380820087552,70
599618380827773056,72
599618380835458432,72
599618380843143936,67
599618380850829312,60
599618380858514816,48
599618380866200320,31
599618380873885696,19
599618380881571200,12
599618380889256576,2
599618380896942080,0
599618380904627442,-2
599618380912313344,-2
599618380919999232,-4
599618380927685120,-2
599618380935371008,0
599618380943056768,2
599618380950742656,2
599618380958428544,2
599618380966114432,2
599618380973800320,7
599618380981486208,9
599618380989171968,9
599618380996857856,7
599618381004543744,9
599618381012229632,14
599618381019915520,14
599618381027601408,14
599618381035287168,19
599618381042973056,19
599618381050658944,14
599618381058344832,16
599618381066030720,21
599618381073716608,21
599618381081402496,19
599618381089088256,21
599618381096774144,19
599618381104460032,21
599618381112145920,21
599618381119831808,19
599618381127517696,19
599618381135203456,21
599618381142889344,24
599618381150575232,21
599618381158261120,19
599618381165947008,24
599618381173632896,26
599618381181318656,19
599618381189004544,19
599618381196690432,24
599618381204376320,21
599618381212062208,21
599618381219748096,26
599618381227433984,24
599618381235119744,24
599618381242805632,26
599618381250491520,24
599618381258177408,24
599618381265863296,26
599618381273549184,26
599618381281234944,26
599618381288920832,29
599618381296606720,24
599618381304292608,24
599618381311978496,26
599618381319664384,29
599618381327350144,29
599618381335036032,26
599618381342721920,26
599618381350407808,31
599618381358093696,26
599618381365779584,24
599618381373465344,29
599618381381151232,29
599618381388837120,26
599618381396523008,26
599618381404208896,26
599618381411894784,26
599618381419580672,26
599618381427266432,21
599618381434952320,21
599618381442638208,33
599618381450324096,31
599618381458009984,21
599618381465695785,26
599618381473381248,45
599618381481066752,55
599618381488752128,53
599618381496437632,43
599618381504123008,38
599618381511808512,24
599618381519493888,16
599618381527179392,21
599618381534864896,24
599618381542550272,19
599618381550235776,19
599618381557921152,24
599618381565606656,21
599618381573292032,24
599618381580977536,26
599618381588663040,0
599618381596348416,-67
599618381604033920,-74
599618381611719296,113
599618381619404800,413
599618381627090304,490
599618381634775680,195
599618381642461184,-96
599618381650146560,-94
599618381657832064,-16
599618381665517440,-9
599618381673202944,19
599618381680888448,36
599618381688573824,12
599618381696259328,14
599618381703944704,29
599618381711630208,26
599618381719315584,21
599618381727001088,26
599618381734686592,26
599618381742371968,26
599618381750057472,31
599618381757742848,36
599618381765428352,33
599618381773113728,36
599618381780799232,41
599618381788484736,38
599618381796170112,41
599618381803855616,50
599618381811540992,50
599618381819226496,50
599618381826911872,60
599618381834597376,65
599618381842282880,65
599618381849968256,67
599618381857653760,72
599618381865339136,72
599618381873024640,72
599618381880710016,67
599618381888395520,60
599618381896081024,45
599618381903766400,36
599618381911451904,21
599618381919137280,4
599618381926822784,-2
599618381934508288,-4
599618381942193664,-9
599618381949879168,-14
599618381957564544,-9
599618381965250048,-7
599618381972935424,-7
599618381980620928,-9
599618381988306432,-7
599618381995991808,-2
599618382003677312,-2
599618382011362688,-2
599618382019048192,2
599618382026733610,7
599618382034419072,2
599618382042104576,2
599618382049789952,4
599618382057475456,4
599618382065160832,12
599618382072846336,14
599618382080531712,14
599618382088217216,12
599618382095902720,12
599618382103588096,14
599618382111273600,16
599618382118958976,16
599618382126644480,16
599618382134329856,19
599618382142015360,21
599618382149700864,19
599618382157386240,14
599618382165071744,16
599618382172757120,19
599618382180442624,19
599618382188128128,19
599618382195813504,21
599618382203499008,21
599618382211184384,21
599618382218869888,21
599618382226555264,21
599618382234240768,21
599618382241926272,21
599618382249611648,21
599618382257297152,21
599618382264982528,24
599618382272668032,26
599618382280353408,24
599618382288038912,21
599618382295724416,24
599618382303409792,26
599618382311095296,24
599618382318780672,26
599618382326466176,29
599618382334151552,26
599618382341837056,24
599618382349522560,26
599618382357207936,26
599618382364893440,26
599618382372578816,21
599618382380264320,24
599618382387949696,26
599618382395635200,21
599618382403320704,21
599618382411006080,24
599618382418691584,24
599618382426376960,24
599618382434062464,24
599618382441747968,24
599618382449433344,21
599618382457118848,26
599618382464804224,21
599618382472489728,19
599618382480175104,26
599618382487860608,31
599618382495546112,21
599618382503231488,16
599618382510916992,36
599618382518602368,50
599618382526287872,48
599618382533973248,41
599618382541658752,38
599618382549344256,24
599618382557029632,14
599618382564715136,21
599618382572400512,21
599618382580086016,16
599618382587771439,19
599618382595457280,24
599618382603143168,24
599618382610829056,21
599618382618514944,21
599618382626200704,7
599618382633886592,-50
599618382641572480,-87
599618382649258368,53
599618382656944256,335
599618382664630144,468
599618382672315904,253
599618382680001792,-53
599618382687687680,-103
599618382695373568,-24
599618382703059456,-9
599618382710745344,9
599618382718431104,38
599618382726116992,19
599618382733802880,12
599618382741488768,26
599618382749174656,26
599618382756860544,24
599618382764546432,31
599618382772232192,36
599618382779918080,33
599618382787603968,33
599618382795289856,41
599618382802975744,41
599618382810661632,41
599618382818347392,48
599618382826033280,50
599618382833719168,48
599618382841405056,53
599618382849090944,58
599618382856776832,58
599618382864462592,65
599618382872148480,72
599618382879834368,72
599618382887520256,72
599618382895206144,77
599618382902892032,79
599618382910577920,77
599618382918263680,72
599618382925949568,70
599618382933635456,62
599618382941321344,45
599618382949007232,29
599618382956693120,19
599618382964378880,9
599618382972064768,7
599618382979750656,2
599618382987436544,0
599618382995122432,0
599618383002808320,0
599618383010494080,4
599618383018179968,4
599618383025865856,0
599618383033551744,4
599618383041237632,9
599618383048923520,4
599618383056609280,7
599618383064295168,12
599618383071981056,12
599618383079666944,14
599618383087352832,16
599618383095038720,19
599618383102724608,19
599618383110410368,19
599618383118096256,21
599618383125782144,26
599618383133468032,29
599618383141153920,26
599618383148839782,26
599618383156525312,31
599618383164210816,26
599618383171896192,26
599618383179581696,31
599618383187267072,29
599618383194952576,26
599618383202637952,29
599618383210323456,26
599618383218008960,26
599618383225694336,31
599618383233379840,29
599618383241065216,26
599618383248750720,31
599618383256436096,31
599618383264121600,31
599618383271807104,33
599618383279492480,31
599618383287177984,29
599618383294863360,31
599618383302548864,33
599618383310234368,29
599618383317919744,31
599618383325605248,33
599618383333290624,36
599618383340976128,33
599618383348661504,33
599618383356347008,33
599618383364032512,36
599618383371717888,36
599618383379403392,36
599618383387088768,36
599618383394774272,36
599618383402459648,36
599618383410145152,36
599618383417830656,36
599618383425516032,38
599618383433201536,38
599618383440886912,36
599618383448572416,38
599618383456257792,38
599618383463943296,36
599618383471628800,36
599618383479314176,36
599618383486999680,38
599618383494685056,41
599618383502370560,41
599618383510055936,38
599618383517741440,38
599618383525426944,41
599618383533112320,38
599618383540797824,38
599618383548483200,41
599618383556168704,41
599618383563854080,41
599618383571539584,43
599618383579225088,43
599618383586910464,38
599618383594595968,41
599618383602281344,62
599618383609966848,70
599618383617652352,60
599618383625337728,58
599618383633023232,50
599618383640708608,36
599618383648394112,33
599618383656079488,36
599618383663764992,36
599618383671450496,38
599618383679135872,38
599618383686821376,36
599618383694506752,36
599618383702192256,41
599618383709877607,36
599618383717563136,0
599618383725248640,-60
599618383732934016,-36
599618383740619520,174
599618383748304896,437
599618383755990400,430
599618383763675776,118
599618383771361280,-101
599618383779046784,-62
599618383786732160,-2
599618383794417664,9
599618383802103040,50
599618383809788544,50
599618383817473920,24
599618383825159424,36
599618383832844928,45
599618383840530304,38
599618383848215808,41
599618383855901184,48
599618383863586688,48
599618383871272192,50
599618383878957568,53
599618383886643072,50
599618383894328448,53
599618383902013952,60
599618383909699328,58
599618383917384832,60
599618383925070336,70
599618383932755712,72
599618383940441216,70
599618383948126592,74
599618383955812096,82
599618383963497472,84
599618383971182976,89
599618383978868480,91
599618383986553856,91
599618383994239360,91
599618384001924736,91
599618384009610240,91
599618384017295616,84
599618384024981120,70
599618384032666624,53
599618384040352000,38
599618384048037504,26
599618384055722880,16
599618384063408384,14
599618384071093760,9
599618384078779264,2
599618384086464768,4
599618384094150144,9
599618384101835648,9
599618384109521024,7
599618384117206528,12
599618384124891904,16
599618384132577408,14
599618384140262912,12
599618384147948288,14
599618384155633792,16
599618384163319168,21
599618384171004672,24
599618384178690176,26
599618384186375552,26
599618384194061056,24
599618384201746432,26
599618384209431936,33
599618384217117312,31
599618384224802816,31
599618384232488320,31
599618384240173696,33
599618384247859200,36
599618384255544576,33
599618384263230080,33
599618384270915432,31
599618384278601344,31
599618384286287232,33
599618384293973120,31
599618384301659008,29
599618384309344768,33
599618384317030656,38
599618384324716544,31
599618384332402432,29
599618384340088320,33
599618384347774208,36
599618384355459968,33
599618384363145856,33
599618384370831744,33
599618384378517632,36
599618384386203520,38
599618384393889408,36
599618384401575168,36
599618384409261056,38
599618384416946944,41
599618384424632832,38
599618384432318720,38
599618384440004608,38
599618384447690496,41
599618384455376256,38
599618384463062144,38
599618384470748032,41
599618384478433920,41
599618384486119808,38
599618384493805696,41
599618384501491456,43
599618384509177344,41
599618384516863232,38
599618384524549120,41
599618384532235008,45
599618384539920896,43
599618384547606656,43
599618384555292544,45
599618384562978432,48
599618384570664320,45
599618384578350208,48
599618384586036096,48
599618384593721984,45
599618384601407744,48
599618384609093632,50
599618384616779520,48
599618384624465408,45
599618384632151296,45
599618384639837184,48
599618384647522944,48
599618384655208832,48
599618384662894720,50
599618384670580608,50
599618384678266496,45
599618384685952384,45
599618384693638144,60
599618384701324032,72
599618384709009920,74
599618384716695808,70
599618384724381696,62
599618384732067584,48
599618384739753344,36
599618384747439232,36
599618384755125120,43
599618384762811008,45
599618384770496896,41
599618384778182784,38
599618384785868672,41
599618384793554432,43
599618384801240320,45
599618384808926208,29
599618384816612096,-33
599618384824297984,-79
599618384831983775,43
599618384839669248,343
599618384847354752,526
599618384855040128,328
599618384862725632,-21
599618384870411008,-116
599618384878096512,-31
599618384885781888,0
599618384893467392,24
599618384901152896,58
599618384908838272,38
599618384916523776,29
599618384924209152,48
599618384931894656,45
599618384939580032,38
599618384947265536,48
599618384954951040,48
599618384962636416,48
599618384970321920,53
599618384978007296,55
599618384985692800,55
599618384993378304,60
599618385001063680,62
599618385008749184,60
599618385016434560,65
599618385024120064,70
599618385031805440,72
599618385039490944,77
599618385047176448,82
599618385054861824,84
599618385062547328,91
599618385070232704,96
599618385077918208,99
599618385085603584,99
599618385093289088,99
599618385100974592,99
599618385108659968,94
599618385116345472,82
599618385124030848,70
599618385131716352,50
599618385139401728,33
599618385147087232,24
599618385154772736,14
599618385162458112,9
599618385170143616,4
599618385177828992,2
599618385185514496,4
599618385193199872,7
599618385200885376,4
599618385208570880,2
599618385216256256,9
599618385223941760,12
599618385231627136,9
599618385239312640,12
599618385246998016,16
599618385254683520,19
599618385262369024,21
599618385270054400,21
599618385277739904,21
599618385285425280,26
599618385293110784,29
599618385300796288,29
599618385308481664,29
599618385316167168,31
599618385323852544,31
599618385331538048,33
599618385339223424,33
599618385346908928,31
599618385354594432,31
599618385362279808,33
599618385369965312,33
599618385377650688,33
599618385385336192,31
599618385393021600,31
599618385400707072,33
599618385408392576,33
599618385416077952,29
599618385423763456,31
599618385431448832,36
599618385439134336,31
599618385446819712,31
599618385454505216,33
599618385462190720,36
599618385469876096,33
599618385477561600,31
599618385485246976,36
599618385492932480,33
599618385500617856,31
599618385508303360,31
599618385515988864,31
599618385523674240,33
599618385531359744,31
599618385539045120,31
599618385546730624,31
599618385554416128,31
599618385562101504,29
599618385569787008,31
599618385577472384,36
599618385585157888,33
599618385592843264,31
599618385600528768,31
599618385608214272,36
599618385615899648,36
599618385623585152,31
599618385631270528,31
599618385638956032,36
599618385646641408,38
599618385654326912,36
599618385662012416,36
599618385669697792,36
599618385677383296,38
599618385685068672,36
599618385692754176,36
599618385700439552,41
599618385708125056,41
599618385715810560,33
599618385723495936,36
599618385731181440,55
599618385738866816,70
599618385746552320,70
599618385754237696,62
599618385761923200,50
599618385769608704,36
599618385777294080,31
599618385784979584,36
599618385792664960,36
599618385800350464,33
599618385808035968,38
599618385815721344,38
599618385823406848,33
599618385831092224,38
599618385838777728,38
599618385846463104,-4
599618385854148608,-82
599618385861834112,-62
599618385869519488,190
599618385877204992,529
599618385884890368,558
599618385892575872,186
599618385900261248,-118
599618385907946752,-84
599618385915632256,-9
599618385923317632,-7
599618385931003136,36
599618385938688512,48
599618385946374016,16
599618385954059429,24
599618385961745280,38
599618385969431168,33
599618385977117056,33
599618385984802944,41
599618385992488704,43
599618386000174592,43
599618386007860480,48
599618386015546368,50
599618386023232256,53
599618386030918144,55
599618386038603904,58
599618386046289792,55
599618386053975680,62
599618386061661568,67
599618386069347456,67
599618386077033344,70
599618386084719104,77
599618386092404992,84
599618386100090880,87
599618386107776768,89
599618386115462656,94
599618386123148544,99
599618386130834432,96
599618386138520192,89
599618386146206080,84
599618386153891968,74
599618386161577856,55
599618386169263744,36
599618386176949632,19
599618386184635392,12
599618386192321280,7
599618386200007168,2
599618386207693056,-2
599618386215378944,-2
599618386223064832,0
599618386230750592,2
599618386238436480,2
599618386246122368,0
599618386253808256,2
599618386261494144,7
599618386269180032,9
599618386276865920,9
599618386284551680,12
599618386292237568,14
599618386299923456,16
599618386307609344,19
599618386315295232,21
599618386322981120,26
599618386330666880,26
599618386338352768,21
599618386346038656,24
599618386353724544,29
599618386361410432,29
599618386369096320,29
599618386376782080,31
599618386384467968,31
599618386392153856,29
599618386399839744,31
599618386407525632,31
599618386415211520,29
599618386422897280,31
599618386430583168,31
599618386438269056,29
599618386445954944,29
599618386453640832,29
599618386461326720,31
599618386469012608,33
599618386476698368,33
599618386484384256,31
