599617595160334592,200
599617595168020480,203
599617595175706368,203
599617595183392256,207
599617595191078016,210
599617595198763904,212
599617595206449792,215
599617595214135680,217
599617595221821568,217
599617595229507456,219
599617595237193344,217
599617595244879104,212
599617595252564992,200
599617595260250880,181
599617595267936768,164
599617595275622656,152
599617595283308544,145
599617595290994304,142
599617595298680192,140
599617595306366080,137
599617595314051968,140
599617595321737856,142
599617595329423744,145
599617595337109504,145
599617595344795392,147
599617595352481280,147
599617595360167168,145
599617595367853056,147
599617595375538944,149
599617595383224704,152
599617595390910592,152
599617595398596480,152
599617595406282368,154
599617595413968256,154
599617595421654144,152
599617595429340032,152
599617595437025792,154
599617595444711680,152
599617595452397568,152
599617595460083456,149
599617595467769344,149
599617595475455202,149
599617595483140736,149
599617595490826240,149
599617595498511616,149
599617595506197120,149
599617595513882496,145
599617595521568000,147
599617595529253376,147
599617595536938880,147
599617595544624384,147
599617595552309760,147
599617595559995264,145
599617595567680640,145
599617595575366144,147
599617595583051520,142
599617595590737024,137
599617595598422528,130
599617595606107904,125
599617595613793408,132
599617595621478784,166
599617595629164288,188
599617595636849792,178
599617595644535168,171
599617595652220672,164
599617595659906048,142
599617595667591552,132
599617595675276928,140
599617595682962432,142
599617595690647936,137
599617595698333312,137
599617595706018816,137
599617595713704192,137
599617595721389696,135
599617595729075072,118
599617595736760576,29
599617595744446080,-72
599617595752131456,62
599617595759816960,529
599617595767502336,981
599617595775187840,882
599617595782873216,268
599617595790558720,-116
599617595798244224,-38
599617595805929600,48
599617595813615104,65
599617595821300480,108
599617595828985984,103
599617595836671360,82
599617595844356864,101
599617595852042368,113
599617595859727744,108
599617595867413248,113
599617595875098624,118
599617595882784128,120
599617595890469632,123
599617595898155008,128
599617595905840512,130
599617595913525888,132
599617595921211392,137
599617595928896768,142
599617595936582272,147
599617595944267776,149
599617595951953152,154
599617595959638656,159
599617595967324032,161
599617595975009536,166
599617595982694912,174
599617595990380416,174
599617595998065920,176
599617596005751296,183
599617596013436800,183
599617596021122176,181
599617596028807680,166
599617596036493031,145
599617596044178560,125
599617596051864064,108
599617596059549440,96
599617596067234944,89
599617596074920320,87
599617596082605824,87
599617596090291200,87
599617596097976704,87
599617596105662208,87
599617596113347584,87
599617596121033088,89
599617596128718464,87
599617596136403968,89
599617596144089344,94
599617596151774848,94
599617596159460352,94
599617596167145728,96
599617596174831232,101
599617596182516608,99
599617596190202112,99
599617596197887616,103
599617596205572992,106
599617596213258496,103
599617596220943872,108
599617596228629376,111
599617596236314752,106
599617596244000256,106
599617596251685760,108
599617596259371136,106
599617596267056640,106
599617596274742016,108
599617596282427520,108
599617596290112896,106
599617596297798400,106
599617596305483904,106
599617596313169280,106
599617596320854784,106
599617596328540160,106
599617596336225664,103
599617596343911040,99
599617596351596544,96
599617596359282048,94
599617596366967424,89
599617596374652928,89
599617596382338304,113
599617596390023808,142
599617596397709184,142
599617596405394688,130
599617596413080192,123
599617596420765568,103
599617596428451072,94
599617596436136448,101
599617596443821952,103
599617596451507328,99
599617596459192832,99
599617596466878336,101
599617596474563712,99
599617596482249216,101
599617596489934592,94
599617596497620096,33
599617596505305600,-79
599617596512990976,-48
599617596520676480,311
599617596528361856,802
599617596536047360,889
599617596543732736,372
599617596551418240,-113
599617596559103744,-96
599617596566789120,16
599617596574474624,16
599617596582160000,70
599617596589845504,94
599617596597530856,58
599617596605216384,70
599617596612901888,94
599617596620587264,84
599617596628272768,82
599617596635958144,96
599617596643643648,96
599617596651329024,96
599617596659014528,103
599617596666700032,103
599617596674385408,106
599617596682070912,113
599617596689756288,120
599617596697441792,120
599617596705127168,123
599617596712812672,130
599617596720498176,132
599617596728183552,135
599617596735869056,142
599617596743554432,149
599617596751239936,149
599617596758925440,154
599617596766610816,159
599617596774296320,159
599617596781981696,157
599617596789667200,149
599617596797352576,130
599617596805038080,106
599617596812723584,87
599617596820408960,77
599617596828094464,70
599617596835779840,65
599617596843465344,65
599617596851150720,65
599617596858836224,62
599617596866521728,62
599617596874207104,65
599617596881892608,67
599617596889577984,70
599617596897263488,70
599617596904948864,70
599617596912634368,72
599617596920319872,74
599617596928005248,79
599617596935690752,79
599617596943376128,82
599617596951061632,84
599617596958747008,82
599617596966432512,84
599617596974118016,89
599617596981803392,89
599617596989488896,89
599617596997174272,89
599617597004859776,87
599617597012545152,89
599617597020230656,91
599617597027916160,91
599617597035601536,89
599617597043287040,91
599617597050972416,91
599617597058657920,91
599617597066343424,89
599617597074028800,89
599617597081714304,87
599617597089399680,87
599617597097085184,91
599617597104770560,94
599617597112456064,99
599617597120141568,125
599617597127826944,147
599617597135512448,142
599617597143197824,132
599617597150883328,123
599617597158568681,103
599617597166254208,101
599617597173939712,106
599617597181625088,103
599617597189310592,101
599617597196995968,103
599617597204681472,101
599617597212366848,99
599617597220052352,101
599617597227737856,89
599617597235423232,16
599617597243108736,-87
599617597250794112,-24
599617597258479616,355
599617597266164992,816
599617597273850496,821
599617597281536000,275
599617597289221376,-132
599617597296906880,-67
599617597304592256,21
599617597312277760,16
599617597319963264,74
599617597327648640,87
599617597335334144,50
599617597343019520,65
599617597350705024,84
599617597358390400,77
599617597366075904,82
599617597373761408,89
599617597381446784,89
599617597389132288,91
599617597396817664,99
599617597404503168,96
599617597412188544,99
599617597419874048,106
599617597427559552,108
599617597435244928,111
599617597442930432,116
599617597450615808,118
599617597458301312,120
599617597465986688,125
599617597473672192,130
599617597481357696,135
599617597489043072,140
599617597496728576,142
599617597504413952,145
599617597512099456,147
599617597519784832,142
599617597527470336,125
599617597535155840,106
599617597542841216,87
599617597550526720,70
599617597558212096,60
599617597565897600,58
599617597573582976,50
599617597581268480,48
599617597588953984,48
599617597596639360,53
599617597604324864,55
599617597612010240,55
599617597619695744,55
599617597627381248,58
599617597635066624,55
599617597642752128,58
599617597650437504,62
599617597658123008,62
599617597665808384,62
599617597673493888,65
599617597681179392,67
599617597688864768,70
599617597696550272,70
599617597704235648,72
599617597711921152,74
599617597719606506,74
599617597727292032,74
599617597734977536,77
599617597742662912,77
599617597750348416,77
599617597758033792,74
599617597765719296,74
599617597773404672,74
599617597781090176,77
599617597788775680,77
599617597796461056,74
599617597804146560,77
599617597811831936,77
599617597819517440,72
599617597827202816,70
599617597834888320,70
599617597842573824,65
599617597850259200,67
599617597857944704,94
599617597865630080,116
599617597873315584,108
599617597881001088,103
599617597888686464,96
599617597896371968,77
599617597904057344,67
599617597911742848,72
599617597919428224,74
599617597927113728,74
599617597934799232,72
599617597942484608,72
599617597950170112,74
599617597957855488,77
599617597965540992,70
599617597973226368,24
599617597980911872,-79
599617597988597376,-84
599617597996282752,212
599617598003968256,686
599617598011653632,841
599617598019339136,408
599617598027024512,-79
599617598034710016,-116
599617598042395520,-2
599617598050080896,4
599617598057766400,36
599617598065451776,60
599617598073137280,36
599617598080822656,45
599617598088508160,62
599617598096193664,55
599617598103879040,60
599617598111564544,70
599617598119249920,70
599617598126935424,70
599617598134620800,74
599617598142306304,79
599617598149991808,79
599617598157677184,82
599617598165362688,87
599617598173048064,87
599617598180733568,89
599617598188419072,91
599617598196104448,96
599617598203789952,101
599617598211475328,106
599617598219160832,111
599617598226846208,111
599617598234531712,113
599617598242217216,118
599617598249902592,120
599617598257588096,116
599617598265273472,106
599617598272958976,91
599617598280644331,74
599617598288329856,60
599617598296015360,48
599617598303700736,41
599617598311386240,38
599617598319071616,36
599617598326757120,38
599617598334442496,38
599617598342128000,41
599617598349813504,43
599617598357498880,45
599617598365184384,43
599617598372869760,43
599617598380555264,43
599617598388240640,29
599617598395926144,9
599617598403611648,14
599617598411297024,26
599617598418982528,29
599617598426667904,29
599617598434353408,31
599617598442038912,31
599617598449724288,33
599617598457409792,36
599617598465095168,38
599617598472780672,41
599617598480466048,45
599617598488151552,45
599617598495837056,45
599617598503522432,43
599617598511207936,43
599617598518893312,48
599617598526578816,48
599617598534264192,50
599617598541949696,53
599617598549635200,53
599617598557320576,50
599617598565006080,50
599617598572691456,50
599617598580376960,50
599617598588062336,50
599617598595747840,45
599617598603433344,43
599617598611118720,60
599617598618804224,89
599617598626489600,91
599617598634175104,84
599617598641860480,87
599617598649545984,74
599617598657231488,53
599617598664916864,58
599617598672602368,65
599617598680287744,58
599617598687973248,58
599617598695658624,62
599617598703344128,60
599617598711029632,60
599617598718715008,62
599617598726400512,50
599617598734085888,-14
599617598741771392,-106
599617598749456896,-24
599617598757142272,350
599617598764827776,746
599617598772513152,686
599617598780198656,186
599617598787884032,-130
599617598795569536,-65
599617598803255040,12
599617598810940416,12
599617598818625920,36
599617598826311296,38
599617598833996800,26
599617598841682156,38
599617598849368064,48
599617598857053952,48
599617598864739840,53
599617598872425728,58
599617598880111488,58
599617598887797376,60
599617598895483264,65
599617598903169152,65
599617598910855040,65
599617598918540928,70
599617598926226688,74
599617598933912576,74
599617598941598464,77
599617598949284352,82
599617598956970240,82
599617598964656128,84
599617598972341888,89
599617598980027776,91
599617598987713664,99
599617598995399552,101
599617599003085440,99
599617599010771328,99
599617599018457216,96
599617599026142976,87
599617599033828864,70
599617599041514752,48
599617599049200640,38
599617599056886528,33
599617599064572416,24
599617599072258176,21
599617599079944064,24
599617599087629952,26
599617599095315840,26
599617599103001728,26
599617599110687616,26
599617599118373376,29
599617599126059264,31
599617599133745152,31
599617599141431040,33
599617599149116928,33
599617599156802816,33
599617599164488704,36
599617599172174464,43
599617599179860352,45
599617599187546240,43
599617599195232128,48
599617599202918016,50
599617599210603904,48
599617599218289664,50
599617599225975552,53
599617599233661440,50
599617599241347328,48
599617599249033216,50
599617599256719104,53
599617599264404864,50
599617599272090752,48
599617599279776640,55
599617599287462528,58
599617599295148416,50
599617599302834304,48
599617599310520192,55
599617599318205952,55
599617599325891840,53
599617599333577728,55
599617599341263616,60
599617599348949504,58
599617599356635392,55
599617599364321152,55
599617599372007040,58
599617599379692928,60
599617599387378816,58
599617599395064704,55
599617599402750503,55
599617599410435968,53
599617599418121472,48
599617599425806848,65
599617599433492352,94
599617599441177728,94
599617599448863232,79
599617599456548608,82
599617599464234112,74
599617599471919616,53
599617599479604992,50
599617599487290496,60
599617599494975872,62
599617599502661376,58
599617599510346752,58
599617599518032256,55
599617599525717760,58
599617599533403136,65
599617599541088640,53
599617599548774016,-14
599617599556459520,-94
599617599564145024,-7
599617599571830400,340
599617599579515904,696
599617599587201280,613
599617599594886784,142
599617599602572160,-123
599617599610257664,-38
599617599617943168,31
599617599625628544,21
599617599633314048,33
599617599640999424,38
599617599648684928,33
599617599656370304,41
599617599664055808,50
599617599671741312,53
599617599679426688,55
599617599687112192,58
599617599694797568,60
599617599702483072,58
599617599710168448,62
599617599717853952,67
599617599725539456,65
599617599733224832,70
599617599740910336,74
599617599748595712,72
599617599756281216,74
599617599763966592,79
599617599771652096,84
599617599779337600,89
599617599787022976,89
599617599794708480,91
599617599802393856,99
599617599810079360,99
599617599817764736,99
599617599825450240,101
599617599833135744,96
599617599840821120,84
599617599848506624,72
599617599856192000,60
599617599863877504,45
599617599871563008,36
599617599879248384,31
599617599886933888,29
599617599894619264,26
599617599902304768,29
599617599909990144,33
599617599917675648,31
599617599925361152,29
599617599933046528,31
599617599940732032,36
599617599948417408,33
599617599956102912,36
599617599963788328,36
599617599971473792,38
599617599979159296,41
599617599986844672,41
599617599994530176,41
599617600002215552,41
599617600009901056,43
599617600017586432,43
599617600025271936,43
599617600032957440,48
599617600040642816,48
599617600048328320,43
599617600056013696,50
599617600063699200,55
599617600071384576,45
599617600079070080,50
599617600086755584,55
599617600094440960,50
599617600102126464,53
599617600109811840,53
599617600117497344,50
599617600125182848,50
599617600132868224,55
599617600140553728,55
599617600148239104,53
599617600155924608,53
599617600163609984,53
599617600171295488,53
599617600178980992,55
599617600186666368,50
599617600194351872,48
599617600202037248,53
599617600209722752,55
599617600217408128,53
599617600225093632,53
599617600232779136,50
599617600240464512,48
599617600248150016,55
599617600255835392,60
599617600263520896,53
599617600271206272,53
599617600278891776,60
599617600286577280,58
599617600294262656,55
599617600301948160,58
599617600309633536,60
599617600317319040,62
599617600325004416,60
599617600332689920,62
599617600340375424,60
599617600348060800,58
599617600355746304,60
599617600363431680,60
599617600371117184,58
599617600378802560,55
599617600386488064,55
599617600394173568,72
599617600401858944,91
599617600409544448,89
599617600417229824,84
599617600424915328,77
599617600432600832,62
599617600440286208,58
599617600447971712,60
599617600455657088,62
599617600463342592,65
599617600471027968,65
599617600478713472,62
599617600486398976,60
599617600494084352,65
599617600501769856,67
599617600509455232,36
599617600517140736,-45
599617600524826153,-65
599617600532511616,145
599617600540197120,512
599617600547882496,650
599617600555568000,335
599617600563253376,-45
599617600570938880,-79
599617600578624256,26
599617600586309760,26
599617600593995264,26
599617600601680640,53
599617600609366144,41
599617600617051520,36
599617600624737024,58
599617600632422400,60
599617600640107904,53
599617600647793408,60
599617600655478784,67
599617600663164288,62
599617600670849664,62
599617600678535168,72
599617600686220672,74
599617600693906048,70
599617600701591552,74
599617600709276928,77
599617600716962432,77
599617600724647808,82
599617600732333312,87
599617600740018816,87
599617600747704192,89
599617600755389696,91
599617600763075072,94
599617600770760576,96
599617600778445952,101
599617600786131456,101
599617600793816960,103
599617600801502336,99
599617600809187840,87
599617600816873216,77
599617600824558720,67
599617600832244096,53
599617600839929600,50
599617600847615104,48
599617600855300480,41
599617600862985984,38
599617600870671360,38
599617600878356864,41
599617600886042240,41
599617600893727744,38
599617600901413248,41
599617600909098624,41
599617600916784128,41
599617600924469504,43
599617600932155008,43
599617600939840384,43
599617600947525888,45
599617600955211392,48
599617600962896768,45
599617600970582272,50
599617600978267648,50
599617600985953152,50
599617600993638656,50
599617601001324032,50
599617601009009536,50
599617601016694912,58
599617601024380416,55
599617601032065792,53
599617601039751296,55
599617601047436800,55
599617601055122176,55
599617601062807680,58
599617601070493056,58
599617601078178560,58
599617601085863978,58
599617601093549440,58
599617601101234944,55
599617601108920320,53
599617601116605824,58
599617601124291200,60
599617601131976704,58
599617601139662080,55
599617601147347584,60
599617601155033088,62
599617601162718464,60
599617601170403968,60
599617601178089344,62
599617601185774848,62
599617601193460224,60
599617601201145728,62
599617601208831232,65
599617601216516608,65
599617601224202112,65
599617601231887488,70
599617601239572992,70
599617601247258496,67
599617601254943872,65
599617601262629376,65
599617601270314752,67
599617601278000256,67
599617601285685632,70
599617601293371136,67
599617601301056640,67
599617601308742016,70
599617601316427520,72
599617601324112896,72
599617601331798400,72
599617601339483776,70
599617601347169280,70
599617601354854784,72
599617601362540160,74
599617601370225664,72
599617601377911040,70
599617601385596544,70
599617601393281920,70
599617601400967424,65
599617601408652928,65
599617601416338304,84
599617601424023808,103
599617601431709184,103
599617601439394688,94
599617601447080064,87
599617601454765568,79
599617601462451072,67
599617601470136448,67
599617601477821952,77
599617601485507328,79
599617601493192832,74
599617601500878208,72
599617601508563712,74
599617601516249216,77
599617601523934592,67
599617601531620096,12
599617601539305472,-67
599617601546990976,-14
599617601554676480,292
599617601562361856,640
599617601570047360,604
599617601577732736,174
599617601585418240,-99
599617601593103616,-33
599617601600789120,33
599617601608474624,29
599617601616160000,50
599617601623845504,53
599617601631530880,43
599617601639216384,58
599617601646901803,65
599617601654587648,62
599617601662273536,65
599617601669959424,72
599617601677645312,72
599617601685331072,72
599617601693016960,77
599617601700702848,79
599617601708388736,77
599617601716074624,82
599617601723760512,89
599617601731446272,89
599617601739132160,89
599617601746818048,94
599617601754503936,96
599617601762189824,99
599617601769875712,101
599617601777561472,106
599617601785247360,108
599617601792933248,111
599617601800619136,111
599617601808305024,113
599617601815990912,111
599617601823676800,108
599617601831362560,99
599617601839048448,82
599617601846734336,67
599617601854420224,58
599617601862106112,50
599617601869792000,45
599617601877477760,41
599617601885163648,38
599617601892849536,41
599617601900535424,41
599617601908221312,41
599617601915907200,43
599617601923592960,50
599617601931278848,45
599617601938964736,43
599617601946650624,48
599617601954336512,53
599617601962022400,50
599617601969708288,50
599617601977394048,58
599617601985079936,60
599617601992765824,60
599617602000451712,60
599617602008137600,62
599617602015823488,62
599617602023509248,62
599617602031195136,65
599617602038881024,67
599617602046566912,65
599617602054252800,62
599617602061938688,67
599617602069624448,70
599617602077310336,67
599617602084996224,67
599617602092682112,67
599617602100368000,70
599617602108053888,70
599617602115739648,67
599617602123425536,65
599617602131111424,67
599617602138797312,70
599617602146483200,72
599617602154169088,74
599617602161854976,72
599617602169540736,72
599617602177226624,74
599617602184912512,70
599617602192598400,70
599617602200284288,74
599617602207970146,77
599617602215655680,74
599617602223341184,77
599617602231026560,77
599617602238712064,74
599617602246397440,74
599617602254082944,74
599617602261768320,74
599617602269453824,74
599617602277139328,77
599617602284824704,77
599617602292510208,74
599617602300195584,74
599617602307881088,77
599617602315566464,77
599617602323251968,74
599617602330937472,72
599617602338622848,77
599617602346308352,77
599617602353993728,77
599617602361679232,77
599617602369364736,74
599617602377050112,77
599617602384735616,77
599617602392420992,77
599617602400106496,74
599617602407791872,74
599617602415477376,70
599617602423162880,62
599617602430848256,65
599617602438533760,89
599617602446219136,103
599617602453904640,101
599617602461590016,96
599617602469275520,87
599617602476961024,70
599617602484646400,65
599617602492331904,72
599617602500017280,74
599617602507702784,70
599617602515388160,70
599617602523073664,67
599617602530759168,67
599617602538444544,67
599617602546130048,55
599617602553815424,-19
599617602561500928,-103
599617602569186304,19
599617602576871808,425
599617602584557312,787
599617602592242688,640
599617602599928192,120
599617602607613568,-120
599617602615299072,-16
599617602622984576,31
599617602630669952,16
599617602638355456,36
599617602646040832,36
599617602653726336,26
599617602661411712,38
599617602669097216,43
599617602676782720,43
599617602684468096,50
599617602692153600,50
599617602699838976,50
599617602707524480,58
599617602715209856,62
599617602722895360,62
599617602730580864,65
599617602738266240,65
599617602745951744,70
599617602753637120,74
599617602761322624,74
599617602769007975,72
599617602776693504,74
599617602784379008,79
599617602792064384,82
599617602799749888,84
599617602807435264,89
599617602815120768,94
599617602822806144,96
599617602830491648,96
599617602838177152,96
599617602845862528,94
599617602853548032,87
599617602861233408,74
599617602868918912,60
599617602876604288,50
599617602884289792,43
599617602891975296,41
599617602899660672,38
599617602907346176,36
599617602915031552,33
599617602922717056,33
599617602930402560,36
599617602938087936,38
599617602945773440,38
599617602953458816,38
599617602961144320,41
599617602968829696,43
599617602976515200,45
599617602984200704,45
599617602991886080,45
599617602999571584,50
599617603007256960,50
599617603014942464,50
599617603022627840,53
599617603030313344,55
599617603037998848,55
599617603045684224,55
599617603053369728,58
599617603061055104,55
599617603068740608,58
599617603076425984,60
599617603084111488,58
599617603091796992,58
599617603099482368,58
599617603107167872,58
599617603114853248,60
599617603122538752,62
599617603130224128,60
599617603137909632,58
599617603145595136,58
599617603153280512,60
599617603160966016,58
599617603168651392,58
599617603176336896,58
599617603184022272,58
599617603191707776,58
599617603199393280,55
599617603207078656,55
599617603214764160,58
599617603222449536,58
599617603230135040,58
599617603237820544,60
599617603245505920,60
599617603253191424,60
599617603260876800,62
599617603268562304,62
599617603276247680,62
599617603283933184,62
599617603291618688,60
599617603299304064,60
599617603306989568,62
599617603314674944,62
599617603322360448,62
599617603330045800,62
599617603337731712,65
599617603345417600,62
599617603353103488,60
599617603360789376,62
599617603368475136,60
599617603376161024,50
599617603383846912,48
599617603391532800,65
599617603399218688,91
599617603406904576,101
599617603414590336,89
599617603422276224,79
599617603429962112,70
599617603437648000,58
599617603445333888,60
599617603453019776,67
599617603460705536,65
599617603468391424,62
599617603476077312,67
599617603483763200,67
599617603491449088,65
599617603499134976,58
599617603506820864,-4
599617603514506624,-108
599617603522192512,-67
599617603529878400,287
599617603537564288,751
599617603545250176,814
599617603552936064,321
599617603560621824,-106
599617603568307712,-77
599617603575993600,29
599617603583679488,16
599617603591365376,26
599617603599051264,43
599617603606737024,33
599617603614422912,41
599617603622108800,53
599617603629794688,53
599617603637480576,53
599617603645166464,58
599617603652852352,62
599617603660538112,62
599617603668224000,60
599617603675909888,65
599617603683595776,70
599617603691281664,72
599617603698967552,72
599617603706653312,72
599617603714339200,74
599617603722025088,77
599617603729710976,77
599617603737396864,77
599617603745082752,79
599617603752768512,82
599617603760454400,84
599617603768140288,87
599617603775826176,87
599617603783512064,91
599617603791197952,94
599617603798883712,91
599617603806569600,84
599617603814255488,70
599617603821941376,58
599617603829627264,48
599617603837313152,41
599617603844999040,36
599617603852684800,29
599617603860370688,29
599617603868056576,29
599617603875742464,31
599617603883428352,31
599617603891114143,33
599617603898799616,33
599617603906485120,33
599617603914170496,33
599617603921856000,31
599617603929541376,31
599617603937226880,36
599617603944912256,36
599617603952597760,33
599617603960283264,36
599617603967968640,38
599617603975654144,41
599617603983339520,41
599617603991025024,43
599617603998710400,43
599617604006395904,48
599617604014081408,48
599617604021766784,48
599617604029452288,48
599617604037137664,45
599617604044823168,45
599617604052508672,48
599617604060194048,48
599617604067879552,45
599617604075564928,45
599617604083250432,45
599617604090935808,43
599617604098621312,43
599617604106306816,43
599617604113992192,43
599617604121677696,45
599617604129363072,48
599617604137048576,45
599617604144733952,43
599617604152419456,43
599617604160104960,43
599617604167790336,41
599617604175475840,43
599617604183161216,43
599617604190846720,41
599617604198532096,41
599617604206217600,43
599617604213903104,43
599617604221588480,41
599617604229273984,41
599617604236959360,43
599617604244644864,43
599617604252330240,41
599617604260015744,41
599617604267701248,41
599617604275386624,43
599617604283072128,41
599617604290757504,38
599617604298443008,36
599617604306128384,26
599617604313813888,21
599617604321499392,36
599617604329184768,65
599617604336870272,77
599617604344555648,67
599617604352241152,60
599617604359926656,53
599617604367612032,36
599617604375297536,31
599617604382982912,41
599617604390668416,41
599617604398353792,38
599617604406039296,41
599617604413724800,41
599617604421410176,38
599617604429095680,33
599617604436781056,-12
599617604444466560,-120
599617604452151968,-142
599617604459837440,145
599617604467522944,657
599617604475208320,916
599617604482893824,536
599617604490579200,-26
599617604498264704,-137
599617604505950080,-7
599617604513635584,0
599617604521321088,-33
599617604529006464,-24
599617604536691968,-12
599617604544377344,-14
599617604552062848,-7
599617604559748224,0
599617604567433728,4
599617604575119232,7
599617604582804608,12
599617604590490112,12
599617604598175488,16
599617604605860992,19
599617604613546496,19
599617604621231872,21
599617604628917376,26
599617604636602752,29
599617604644288256,31
599617604651973632,36
599617604659659136,36
599617604667344640,33
599617604675030016,38
599617604682715520,43
599617604690400896,43
599617604698086400,45
599617604705771776,48
599617604713457280,53
599617604721142784,55
599617604728828160,58
599617604736513664,55
599617604744199040,48
599617604751884544,38
599617604759569920,29
599617604767255424,21
599617604774940928,16
599617604782626304,14
599617604790311808,12
599617604797997184,14
599617604805682688,14
599617604813368064,12
599617604821053568,14
599617604828739072,16
599617604836424448,19
599617604844109952,21
599617604851795328,21
599617604859480832,24
599617604867166208,26
599617604874851712,26
599617604882537216,29
599617604890222592,31
599617604897908096,31
599617604905593472,31
599617604913278976,33
599617604920964480,36
599617604928649856,36
599617604936335360,36
599617604944020736,38
599617604951706240,36
599617604959391616,36
599617604967077120,38
599617604974762624,41
599617604982448000,38
599617604990133504,36
599617604997818880,38
599617605005504384,38
599617605013189793,36
599617605020875264,36
599617605028560768,38
599617605036246144,38
599617605043931648,36
599617605051617024,36
599617605059302528,38
599617605066987904,38
599617605074673408,38
599617605082358912,38
599617605090044288,38
599617605097729792,38
599617605105415168,41
599617605113100672,38
599617605120786048,36
599617605128471552,38
599617605136157056,38
599617605143842432,36
599617605151527936,36
599617605159213312,38
599617605166898816,36
599617605174584320,38
599617605182269696,38
599617605189955200,36
599617605197640576,33
599617605205326080,29
599617605213011456,21
599617605220696960,19
599617605228382464,45
599617605236067840,74
599617605243753344,74
599617605251438720,65
599617605259124224,60
599617605266809600,43
599617605274495104,29
599617605282180608,36
599617605289865984,43
599617605297551488,33
599617605305236864,31
599617605312922368,31
599617605320607744,31
599617605328293248,29
599617605335978752,16
599617605343664128,-67
599617605351349632,-174
599617605359035008,-77
599617605366720512,352
599617605374405888,853
599617605382091392,872
599617605389776896,319
599617605397462272,-125
599617605405147776,-101
599617605412833152,4
599617605420518656,-21
599617605428204032,-48
599617605435889536,-33
599617605443575040,-24
599617605451260416,-24
599617605458945920,-16
599617605466631296,-9
599617605474316800,-4
599617605482002304,0
599617605489687680,4
599617605497373184,7
599617605505058560,9
599617605512744064,14
599617605520429440,14
599617605528114944,19
599617605535800448,24
599617605543485824,26
599617605551171328,26
599617605558856704,29
599617605566542208,33
599617605574227618,36
599617605581913088,41
599617605589598592,43
599617605597283968,45
599617605604969472,50
599617605612654848,53
599617605620340352,55
599617605628025728,58
599617605635711232,55
599617605643396736,45
599617605651082112,33
599617605658767616,21
599617605666452992,12
599617605674138496,4
599617605681823872,2
599617605689509376,0
599617605697194880,-2
599617605704880256,-2
599617605712565760,-2
599617605720251136,0
599617605727936640,0
599617605735622144,0
599617605743307520,2
599617605750993024,2
599617605758678400,4
599617605766363904,7
599617605774049280,7
599617605781734784,9
599617605789420288,14
599617605797105664,16
599617605804791168,16
599617605812476544,16
599617605820162048,19
599617605827847424,16
599617605835532928,16
599617605843218432,14
599617605850903808,12
599617605858589312,12
599617605866274688,12
599617605873960192,9
599617605881645568,7
599617605889331072,4
599617605897016576,7
599617605904701952,9
599617605912387456,9
599617605920072832,9
599617605927758336,9
599617605935443712,9
599617605943129216,9
599617605950814720,9
599617605958500096,7
599617605966185600,7
599617605973870976,12
599617605981556480,12
599617605989241984,12
599617605996927360,12
599617606004612864,14
599617606012298240,16
599617606019983744,9
599617606027669120,-7
599617606035354624,-14
599617606043040128,-12
599617606050725504,-12
599617606058411008,-16
599617606066096384,-19
599617606073781888,-24
599617606081467264,-7
599617606089152768,31
599617606096838272,43
599617606104523648,31
599617606112209152,26
599617606119894528,12
599617606127580032,-9
599617606135265447,-7
599617606142951296,0
599617606150637184,-2
599617606158323072,-2
599617606166008960,-2
599617606173694720,-7
599617606181380608,-12
599617606189066496,-16
599617606196752384,-67
599617606204438272,-183
599617606212124160,-190
599617606219809920,125
599617606227495808,655
599617606235181696,894
599617606242867584,490
599617606250553472,-87
599617606258239360,-212
599617606265925120,-77
599617606273611008,-36
599617606281296896,-67
599617606288982784,-77
599617606296668672,-60
599617606304354560,-50
599617606312040448,-48
599617606319726208,-38
599617606327412096,-31
599617606335097984,-29
599617606342783872,-26
599617606350469760,-19
599617606358155648,-14
599617606365841408,-9
599617606373527296,-7
599617606381213184,-2
599617606388899072,2
599617606396584960,4
599617606404270848,9
599617606411956608,14
599617606419642496,19
599617606427328384,21
599617606435014272,26
599617606442700160,31
599617606450386048,38
599617606458071936,41
599617606465757696,43
599617606473443584,48
599617606481129472,50
599617606488815360,43
599617606496501248,31
599617606504187136,14
599617606511872896,0
599617606519558784,-9
599617606527244672,-14
599617606534930560,-16
599617606542616448,-16
599617606550302336,-19
599617606557988096,-16
599617606565673984,-12
599617606573359872,-9
599617606581045760,-9
599617606588731648,-9
599617606596417536,-4
599617606604103296,0
599617606611789184,0
599617606619475072,4
599617606627160960,7
599617606634846848,12
599617606642532736,12
599617606650218624,14
599617606657904384,19
599617606665590272,19
599617606673276160,19
599617606680962048,24
599617606688647936,26
599617606696333790,29
599617606704019328,29
599617606711704832,29
599617606719390208,31
599617606727075712,29
599617606734761088,31
599617606742446592,31
599617606750131968,33
599617606757817472,33
599617606765502976,33
599617606773188352,33
599617606780873856,36
599617606788559232,38
599617606796244736,38
599617606803930112,36
599617606811615616,38
599617606819301120,41
599617606826986496,41
599617606834672000,38
599617606842357376,33
599617606850042880,31
599617606857728384,26
599617606865413760,21
599617606873099264,36
599617606880784640,72
599617606888470144,84
599617606896155520,74
599617606903841024,72
599617606911526528,60
599617606919211904,38
599617606926897408,38
599617606934582784,48
599617606942268288,45
599617606949953664,41
599617606957639168,43
599617606965324672,43
599617606973010048,43
599617606980695552,41
599617606988380928,7
599617606996066432,-96
599617607003751808,-145
599617607011437312,99
599617607019122816,606
599617607026808192,937
599617607034493696,645
599617607042179072,36
599617607049864576,-183
599617607057549952,-55
599617607065235456,19
599617607072920960,-2
599617607080606336,-16
599617607088291840,-9
599617607095977216,2
599617607103662720,7
599617607111348096,12
599617607119033600,19
599617607126719104,24
599617607134404480,26
599617607142089984,31
599617607149775360,33
599617607157460864,38
599617607165146368,43
599617607172831744,48
599617607180517248,50
599617607188202624,53
599617607195888128,58
599617607203573504,60
599617607211259008,65
599617607218944512,70
599617607226629888,74
599617607234315392,79
599617607242000768,84
599617607249686272,89
599617607257371615,91
599617607265057152,91
599617607272742656,91
599617607280428032,89
599617607288113536,77
599617607295798912,58
599617607303484416,43
599617607311169792,33
599617607318855296,26
599617607326540800,21
599617607334226176,19
599617607341911680,21
599617607349597056,21
599617607357282560,21
599617607364967936,26
599617607372653440,29
599617607380338944,31
599617607388024320,31
599617607395709824,33
599617607403395200,38
599617607411080704,43
599617607418766208,45
599617607426451584,45
599617607434137088,48
599617607441822464,53
599617607449507968,55
599617607457193344,58
599617607464878848,58
599617607472564352,58
599617607480249728,60
599617607487935232,62
599617607495620608,62
599617607503306112,62
599617607510991488,62
599617607518676992,65
599617607526362496,67
599617607534047872,70
599617607541733376,70
599617607549418752,77
599617607557104256,89
599617607564789632,94
599617607572475136,89
599617607580160640,91
599617607587846016,96
599617607595531520,111
599617607603216896,142
599617607610902400,164
599617607618587776,152
599617607626273280,137
599617607633958784,137
599617607641644160,128
599617607649329664,123
599617607657015040,149
599617607664700544,178
599617607672385920,174
599617607680071424,164
599617607687756928,152
599617607695442304,128
599617607703127808,116
599617607710813184,120
599617607718498688,120
599617607726184192,116
599617607733869568,113
599617607741555072,116
599617607749240448,113
599617607756925952,108
599617607764611328,94
599617607772296832,16
599617607779982336,-72
599617607787667712,62
599617607795353216,512
599617607803038592,940
599617607810724096,816
599617607818409440,207
599617607826094976,-145
599617607833780480,-55
599617607841465856,45
599617607849151360,67
599617607856836736,82
599617607864522240,60
599617607872207616,53
599617607879893120,72
599617607887578624,74
599617607895264000,70
599617607902949504,74
599617607910634880,79
599617607918320384,77
599617607926005760,79
599617607933691264,82
599617607941376768,87
599617607949062144,87
599617607956747648,89
599617607964433024,91
599617607972118528,96
599617607979804032,99
599617607987489408,103
599617607995174912,108
599617608002860288,116
599617608010545792,120
599617608018231168,123
599617608025916672,128
599617608033602176,130
599617608041287552,132
599617608048973056,132
599617608056658432,132
599617608064343936,118
599617608072029312,96
599617608079714816,74
599617608087400320,58
599617608095085696,45
599617608102771200,36
599617608110456576,33
599617608118142080,31
599617608125827456,29
599617608133512960,31
599617608141198464,36
599617608148883840,36
599617608156569344,36
599617608164254720,36
599617608171940224,38
599617608179625600,43
599617608187311104,41
599617608194996608,41
599617608202681984,41
599617608210367488,43
599617608218052864,43
599617608225738368,43
599617608233423744,45
599617608241109248,45
599617608248794752,43
599617608256480128,45
599617608264165632,43
599617608271851008,38
599617608279536512,41
599617608287222016,43
599617608294907392,41
599617608302592896,36
599617608310278272,38
599617608317963776,41
599617608325649152,38
599617608333334656,33
599617608341020160,33
599617608348705536,26
599617608356391040,19
599617608364076416,16
599617608371761920,24
599617608379447265,48
599617608387132800,70
599617608394818304,70
599617608402503680,60
599617608410189184,48
599617608417874560,29
599617608425560064,24
599617608433245440,31
599617608440930944,29
599617608448616448,26
599617608456301824,29
599617608463987328,29
599617608471672704,29
599617608479358208,29
599617608487043584,14
599617608494729088,-53
599617608502414592,-154
599617608510099968,-65
599617608517785472,348
599617608525470848,787
599617608533156352,708
599617608540841856,113
599617608548527232,-253
599617608556212736,-154
599617608563898112,-60
599617608571583616,-38
599617608579268992,24
599617608586954496,16
599617608594640000,-16
599617608602325376,4
599617608610010880,21
599617608617696256,9
599617608625381760,14
599617608633067136,26
599617608640752640,26
599617608648438144,26
599617608656123520,31
599617608663809024,33
599617608671494400,41
599617608679179904,48
599617608686865280,48
599617608694550784,53
599617608702236288,60
599617608709921664,65
599617608717607168,72
599617608725292544,79
599617608732978048,82
599617608740663424,87
599617608748348928,94
599617608756034432,99
599617608763719808,96
599617608771405312,96
599617608779090688,94
599617608786776192,77
599617608794461568,48
599617608802147072,24
599617608809832576,7
599617608817517952,-7
599617608825203456,-14
599617608832888832,-14
599617608840574336,-16
599617608848259840,-19
599617608855945216,-16
599617608863630720,-14
599617608871316096,-14
599617608879001600,-9
599617608886686976,-7
599617608894372480,-7
599617608902057984,-4
599617608909743360,0
599617608917428864,2
599617608925114240,2
599617608932799744,4
599617608940485090,4
599617608948171008,7
599617608955856896,9
599617608963542784,12
599617608971228672,9
599617608978914432,12
599617608986600320,12
599617608994286208,12
599617609001972096,14
599617609009657984,14
599617609017343872,12
599617609025029632,12
599617609032715520,12
599617609040401408,12
599617609048087296,7
599617609055773184,2
599617609063459072,0
599617609071144832,9
599617609078830720,31
599617609086516608,53
599617609094202496,53
599617609101888384,43
599617609109574272,29
599617609117260160,14
599617609124945920,9
599617609132631808,14
599617609140317696,16
599617609148003584,12
599617609155689472,14
599617609163375360,16
599617609171061120,16
599617609178747008,16
599617609186432896,9
599617609194118784,-50
599617609201804672,-157
599617609209490560,-99
599617609217176320,280
599617609224862208,727
599617609232548096,710
599617609240233984,149
599617609247919872,-244
599617609255605760,-157
599617609263291648,-55
599617609270977408,-53
599617609278663296,9
599617609286349184,19
599617609294035072,-16
599617609301720960,0
599617609309406848,16
599617609317092608,9
599617609324778496,12
599617609332464384,24
599617609340150272,24
599617609347836160,24
599617609355522048,31
599617609363207808,36
599617609370893696,38
599617609378579584,41
599617609386265472,48
599617609393951360,50
599617609401637248,48
599617609409323136,58
599617609417008896,65
599617609424694784,67
599617609432380672,72
599617609440066560,79
599617609447752448,84
599617609455438336,84
599617609463124096,89
599617609470809984,89
599617609478495872,84
599617609486181760,67
599617609493867648,43
599617609501553437,21
599617609509238912,7
599617609516924416,-2
599617609524609792,-9
599617609532295296,-14
599617609539980672,-14
599617609547666176,-12
599617609555351552,-12
599617609563037056,-9
599617609570722560,-9
599617609578407936,-9
599617609586093440,-7
599617609593778816,-4
599617609601464320,-2
599617609609149696,0
599617609616835200,0
599617609624520704,2
599617609632206080,4
599617609639891584,7
599617609647576960,7
599617609655262464,9
599617609662947968,12
599617609670633344,9
599617609678318848,9
599617609686004224,14
599617609693689728,14
599617609701375104,12
599617609709060608,12
599617609716746112,14
599617609724431488,14
599617609732116992,9
599617609739802368,7
599617609747487872,4
599617609755173248,7
599617609762858752,24
599617609770544256,45
599617609778229632,53
599617609785915136,48
599617609793600512,36
599617609801286016,19
599617609808971392,12
599617609816656896,16
599617609824342400,14
599617609832027776,14
599617609839713280,14
599617609847398656,14
599617609855084160,14
599617609862769536,16
599617609870455040,16
599617609878140544,-16
599617609885825920,-120
599617609893511424,-157
599617609901196800,94
599617609908882304,565
599617609916567680,785
599617609924253184,401
599617609931938688,-128
599617609939624064,-200
599617609947309568,-67
599617609954994944,-48
599617609962680448,-16
599617609970365952,14
599617609978051328,-12
599617609985736832,-12
599617609993422208,12
599617610001107712,7
599617610008793088,4
599617610016478592,16
599617610024164096,19
599617610031849472,21
599617610039534976,21
599617610047220352,24
599617610054905856,31
599617610062591262,36
599617610070276736,38
599617610077962240,41
599617610085647616,45
599617610093333120,53
599617610101018496,53
599617610108704000,55
599617610116389376,62
599617610124074880,70
599617610131760384,70
599617610139445760,74
599617610147131264,77
599617610154816640,77
599617610162502144,72
599617610170187520,62
599617610177873024,45
599617610185558528,24
599617610193243904,7
599617610200929408,0
599617610208614784,-4
599617610216300288,-12
599617610223985792,-12
599617610231671168,-7
599617610239356672,-9
599617610247042048,-12
599617610254727552,-9
599617610262412928,-7
599617610270098432,-7
599617610277783936,-7
599617610285469312,-2
599617610293154816,0
599617610300840192,-2
599617610308525696,0
599617610316211072,7
599617610323896576,9
599617610331582080,9
599617610339267456,9
599617610346952960,9
599617610354638336,9
599617610362323840,12
599617610370009216,12
599617610377694720,14
599617610385380224,14
599617610393065600,14
599617610400751104,14
599617610408436480,14
599617610416121984,14
599617610423807360,14
599617610431492864,7
599617610439178368,4
599617610446863744,9
599617610454549248,33
599617610462234624,53
599617610469920128,50
599617610477605504,43
599617610485291008,33
599617610492976512,16
599617610500661888,7
599617610508347392,12
599617610516032768,16
599617610523718272,14
599617610531403776,14
599617610539089152,14
599617610546774656,16
599617610554460032,16
599617610562145536,14
599617610569830912,-29
599617610577516416,-130
599617610585201920,-132
599617610592887296,166
599617610600572800,621
599617610608258176,732
599617610615943680,285
599617610623629087,-154
599617610631314560,-152
599617610639000064,-38
599617610646685440,-31
599617610654370944,-7
599617610662056320,4
599617610669741824,-14
599617610677427200,-7
599617610685112704,7
599617610692798208,7
599617610700483584,9
599617610708169088,14
599617610715854464,14
599617610723539968,16
599617610731225344,21
599617610738910848,24
599617610746596352,29
599617610754281728,31
599617610761967232,31
599617610769652608,36
599617610777338112,38
599617610785023616,41
599617610792708992,45
599617610800394496,50
599617610808079872,55
599617610815765376,58
599617610823450752,60
599617610831136256,67
599617610838821760,65
599617610846507136,62
599617610854192640,62
599617610861878016,53
599617610869563520,26
599617610877248896,7
599617610884934400,-4
599617610892619904,-12
599617610900305280,-21
599617610907990784,-24
599617610915676160,-21
599617610923361664,-21
599617610931047040,-21
599617610938732544,-19
599617610946418048,-16
599617610954103424,-16
599617610961788928,-14
599617610969474304,-12
599617610977159808,-9
599617610984845184,-9
599617610992530688,-9
599617611000216192,-7
599617611007901568,-4
599617611015587072,0
599617611023272448,2
599617611030957952,2
599617611038643328,7
599617611046328832,9
599617611054014336,7
599617611061699712,4
599617611069385216,7
599617611077070592,12
599617611084756096,9
599617611092441600,12
599617611100126976,14
599617611107812480,12
599617611115497856,12
599617611123183360,14
599617611130868736,12
599617611138554240,4
599617611146239744,4
599617611153925120,9
599617611161610624,14
599617611169296000,33
599617611176981504,50
599617611184666912,48
599617611192352384,45
599617611200037888,36
599617611207723264,14
599617611215408768,7
599617611223094144,14
599617611230779648,19
599617611238465024,19
599617611246150528,16
599617611253836032,19
599617611261521408,19
599617611269206912,14
599617611276892288,14
599617611284577792,-26
599617611292263168,-123
599617611299948672,-118
599617611307634176,181
599617611315319552,613
599617611323005056,696
599617611330690432,263
599617611338375936,-140
599617611346061440,-125
599617611353746816,-21
599617611361432320,-24
599617611369117696,-14
599617611376803200,0
599617611384488576,-7
599617611392174080,0
599617611399859584,7
599617611407544960,4
599617611415230464,12
599617611422915840,16
599617611430601344,19
599617611438286720,19
599617611445972224,21
599617611453657728,29
599617611461343104,31
599617611469028608,29
599617611476713984,31
599617611484399488,41
599617611492084864,41
599617611499770368,36
599617611507455872,43
599617611515141248,53
599617611522826752,53
599617611530512128,55
599617611538197632,62
599617611545883008,65
599617611553568512,62
599617611561254016,62
599617611568939392,60
599617611576624896,53
599617611584310272,33
599617611591995776,16
599617611599681152,9
599617611607366656,4
599617611615052160,-2
599617611622737536,-4
599617611630423040,-2
599617611638108416,0
599617611645793920,-2
599617611653479424,0
599617611661164800,0
599617611668850304,-2
599617611676535680,2
599617611684221184,4
599617611691906560,2
599617611699592064,7
599617611707277568,9
599617611714962944,9
599617611722648448,9
599617611730333824,14
599617611738019328,12
599617611745704737,12
599617611753390208,19
599617611761075712,21
599617611768761088,19
599617611776446592,16
599617611784131968,19
599617611791817472,21
599617611799502848,24
599617611807188352,24
599617611814873856,19
599617611822559232,19
599617611830244736,26
599617611837930112,26
599617611845615616,19
599617611853300992,21
599617611860986496,24
599617611868672000,26
599617611876357376,26
599617611884042880,24
599617611891728256,21
599617611899413760,26
599617611907099264,26
599617611914784640,24
599617611922470144,21
599617611930155520,26
599617611937841024,26
599617611945526400,26
599617611953211904,26
599617611960897408,24
599617611968582784,24
599617611976268288,24
599617611983953664,19
599617611991639168,19
599617611999324544,33
599617612007010048,53
599617612014695552,58
599617612022380928,53
599617612030066432,48
599617612037751808,31
599617612045437312,16
599617612053122688,21
599617612060808192,26
599617612068493696,24
599617612076179072,26
599617612083864576,24
599617612091549952,21
599617612099235456,26
599617612106920832,26
599617612114606336,2
599617612122291840,-60
599617612129977216,-123
599617612137662720,2
599617612145348096,377
599617612153033600,676
599617612160718976,483
599617612168404480,4
599617612176089984,-161
599617612183775360,-43
599617612191460864,-4
599617612199146240,-16
599617612206831744,2
599617612214517248,2
599617612222202624,-4
599617612229888128,7
599617612237573504,14
599617612245259008,14
599617612252944384,21
599617612260629888,24
599617612268315392,19
599617612276000768,26
599617612283686272,29
599617612291371648,31
599617612299057152,33
599617612306742562,33
599617612314428032,38
599617612322113536,38
599617612329798912,41
599617612337484416,48
599617612345169792,45
599617612352855296,45
599617612360540672,55
599617612368226176,58
599617612375911680,58
599617612383597056,62
599617612391282560,67
599617612398967936,65
599617612406653440,58
599617612414338816,53
599617612422024320,38
599617612429709824,21
599617612437395200,12
599617612445080704,9
599617612452766080,4
599617612460451584,0
599617612468137088,0
599617612475822464,0
599617612483507968,0
599617612491193344,4
599617612498878848,7
599617612506564224,2
599617612514249728,2
599617612521935232,2
599617612529620608,4
599617612537306112,9
599617612544991488,12
599617612552676992,12
599617612560362368,14
599617612568047872,12
599617612575733376,12
599617612583418752,14
599617612591104256,14
599617612598789632,16
599617612606475136,21
599617612614160512,19
599617612621846016,16
599617612629531520,21
599617612637216896,24
599617612644902400,19
599617612652587776,21
599617612660273280,24
599617612667958656,24
599617612675644160,21
599617612683329664,24
599617612691015040,29
599617612698700544,26
599617612706385920,21
599617612714071424,24
599617612721756928,29
599617612729442304,26
599617612737127808,26
599617612744813184,29
599617612752498688,29
599617612760184064,24
599617612767869568,26
599617612775555072,31
599617612783240448,29
599617612790925952,24
599617612798611328,31
599617612806296832,31
599617612813982208,29
599617612821667712,29
599617612829353216,31
599617612837038592,31
599617612844724096,26
599617612852409472,29
599617612860094976,31
599617612867780391,31
599617612875466240,29
599617612883152128,31
599617612890838016,33
599617612898523904,33
599617612906209664,31
599617612913895552,29
599617612921581440,31
599617612929267328,31
599617612936953216,29
599617612944639104,29
599617612952324864,26
599617612960010752,24
599617612967696640,29
599617612975382528,43
599617612983068416,55
599617612990754304,60
599617612998440064,53
599617613006125952,41
599617613013811840,31
599617613021497728,26
599617613029183616,26
599617613036869504,29
599617613044555392,29
599617613052241152,31
599617613059927040,33
599617613067612928,31
599617613075298816,31
599617613082984704,29
599617613090670592,-16
599617613098356352,-101
599617613106042240,-77
599617613113728128,200
599617613121414016,572
599617613129099904,606
599617613136785792,193
599617613144471552,-135
599617613152157440,-82
599617613159843328,4
599617613167529216,-12
599617613175215104,2
599617613182900992,16
599617613190586880,4
599617613198272640,9
599617613205958528,21
599617613213644416,24
599617613221330304,26
599617613229016192,29
599617613236702080,31
599617613244387840,31
599617613252073728,36
599617613259759616,38
599617613267445504,38
599617613275131392,36
599617613282817280,43
599617613290503040,48
599617613298188928,48
599617613305874816,50
599617613313560704,53
599617613321246592,53
599617613328932480,58
599617613336618240,67
599617613344304128,70
599617613351990016,70
599617613359675904,72
599617613367361792,72
599617613375047680,72
599617613382733568,65
599617613390419328,60
599617613398105216,43
599617613405791104,29
599617613413476992,24
599617613421162880,16
599617613428848734,12
599617613436534272,12
599617613444219776,14
599617613451905152,12
599617613459590656,12
599617613467276032,16
599617613474961536,19
599617613482646912,16
599617613490332416,16
599617613498017920,19
599617613505703296,21
599617613513388800,19
599617613521074176,19
599617613528759680,19
599617613536445056,24
599617613544130560,24
599617613551816064,21
599617613559501440,26
599617613567186944,29
599617613574872320,29
599617613582557824,31
599617613590243328,31
599617613597928704,31
599617613605614208,33
599617613613299584,36
599617613620985088,33
599617613628670464,36
599617613636355968,33
599617613644041472,33
599617613651726848,36
599617613659412352,36
599617613667097728,33
599617613674783232,33
599617613682468608,36
599617613690154112,36
599617613697839616,36
599617613705524992,36
599617613713210496,36
599617613720895872,36
599617613728581376,36
599617613736266752,38
599617613743952256,38
599617613751637760,36
599617613759323136,36
599617613767008640,38
599617613774694016,38
599617613782379520,36
599617613790064896,36
599617613797750400,38
599617613805435904,38
599617613813121280,36
599617613820806784,38
599617613828492160,41
599617613836177664,36
599617613843863040,36
599617613851548544,41
599617613859234048,38
599617613866919424,36
599617613874604928,38
599617613882290304,41
599617613889975808,38
599617613897661312,38
599617613905346688,41
599617613913032192,41
599617613920717568,38
599617613928403072,38
599617613936088448,38
599617613943773952,36
599617613951459456,36
599617613959144832,38
599617613966830336,38
599617613974515712,38
599617613982201216,36
599617613989886559,31
599617613997572096,29
599617614005257600,43
599617614012942976,67
599617614020628480,67
599617614028313856,58
599617614035999360,53
599617614043684736,41
599617614051370240,29
599617614059055744,33
599617614066741120,41
599617614074426624,36
599617614082112000,33
599617614089797504,38
599617614097482880,41
599617614105168384,36
599617614112853888,33
599617614120539264,-4
599617614128224768,-101
599617614135910144,-101
599617614143595648,176
599617614151281152,596
599617614158966528,700
599617614166652032,292
599617614174337408,-113
599617614182022912,-103
599617614189708288,0
599617614197393792,-9
599617614205079296,2
599617614212764672,19
599617614220450176,7
599617614228135552,9
599617614235821056,24
599617614243506432,24
599617614251191936,24
599617614258877440,29
599617614266562816,33
599617614274248320,36
599617614281933696,36
599617614289619200,38
599617614297304576,43
599617614304990080,45
599617614312675584,48
599617614320360960,48
599617614328046464,50
599617614335731840,55
599617614343417344,55
599617614351102720,58
599617614358788224,62
599617614366473728,67
599617614374159104,74
599617614381844608,74
599617614389529984,72
599617614397215488,74
599617614404900864,79
599617614412586368,74
599617614420271872,62
599617614427957248,50
599617614435642752,38
599617614443328128,26
599617614451013632,19
599617614458699136,16
599617614466384512,14
599617614474070016,14
599617614481755392,12
599617614489440896,14
599617614497126272,14
599617614504811776,9
599617614512497280,12
599617614520182656,14
599617614527868160,16
599617614535553536,16
599617614543239040,16
599617614550924384,19
599617614558609920,19
599617614566295424,21
599617614573980800,21
599617614581666304,24
599617614589351680,26
599617614597037184,26
599617614604722560,29
599617614612408064,31
599617614620093568,29
599617614627778944,29
599617614635464448,31
599617614643149824,31
599617614650835328,33
599617614658520704,33
599617614666206208,31
599617614673891712,31
599617614681577088,31
599617614689262592,31
599617614696947968,31
599617614704633472,31
599617614712318976,31
599617614720004352,31
599617614727689856,31
599617614735375232,33
599617614743060736,31
599617614750746112,31
599617614758431616,33
599617614766117120,33
599617614773802496,29
599617614781488000,29
599617614789173376,31
599617614796858880,29
599617614804544256,29
599617614812229760,31
599617614819915264,31
599617614827600640,31
599617614835286144,31
599617614842971520,29
599617614850657024,29
599617614858342400,31
599617614866027904,31
599617614873713408,31
599617614881398784,31
599617614889084288,33
599617614896769664,31
599617614904455168,29
599617614912140544,29
599617614919826048,31
599617614927511552,31
599617614935196928,33
599617614942882432,31
599617614950567808,29
599617614958253312,29
599617614965938688,24
599617614973624192,19
599617614981309696,21
599617614988995072,41
599617614996680576,60
599617615004365952,62
599617615012051456,55
599617615019736960,43
599617615027422336,29
599617615035107840,24
599617615042793216,29
599617615050478720,31
599617615058164096,29
599617615065849600,29
599617615073535104,31
599617615081220480,31
599617615088905984,31
599617615096591360,19
599617615104276864,-50
599617615111962209,-145
599617615119647744,-67
599617615127333248,314
599617615135018624,744
599617615142704128,710
599617615150389504,178
599617615158075008,-171
599617615165760384,-87
599617615173445888,-4
599617615181131392,-26
599617615188816768,-7
599617615196502272,2
599617615204187648,-9
599617615211873152,-2
599617615219558528,9
599617615227244032,9
599617615234929536,12
599617615242614912,16
599617615250300416,21
599617615257985792,21
599617615265671296,24
599617615273356800,29
599617615281042176,31
599617615288727680,33
599617615296413056,33
599617615304098560,36
599617615311783936,41
599617615319469440,45
599617615327154944,48
599617615334840320,50
599617615342525824,55
599617615350211200,60
599617615357896704,62
599617615365582080,67
599617615373267584,72
599617615380953088,72
599617615388638464,72
599617615396323968,70
599617615404009344,58
599617615411694848,41
599617615419380224,29
599617615427065728,19
599617615434751232,12
599617615442436608,9
599617615450122112,9
599617615457807488,7
599617615465492992,7
599617615473178368,12
599617615480863872,12
599617615488549376,9
599617615496234752,9
599617615503920256,14
599617615511605632,12
599617615519291136,12
599617615526976512,16
599617615534662016,19
599617615542347520,16
599617615550032896,16
599617615557718400,29
599617615565403776,41
599617615573089280,43
599617615580774784,36
599617615588460160,36
599617615596145664,41
599617615603831040,41
599617615611516544,41
599617615619201920,43
599617615626887424,41
599617615634572928,36
599617615642258304,38
599617615649943808,41
599617615657629184,38
599617615665314688,36
599617615673000034,38
599617615680685568,38
599617615688371072,33
599617615696056448,33
599617615703741952,33
599617615711427328,33
599617615719112832,33
599617615726798208,33
599617615734483712,31
599617615742169216,31
599617615749854592,33
599617615757540096,31
599617615765225472,29
599617615772910976,31
599617615780596352,29
599617615788281856,29
599617615795967360,29
599617615803652736,29
599617615811338240,29
599617615819023616,26
599617615826709120,26
599617615834394624,26
599617615842080000,26
599617615849765504,26
599617615857450880,26
599617615865136384,26
599617615872821760,26
599617615880507264,26
599617615888192768,29
599617615895878144,31
599617615903563648,29
599617615911249024,31
599617615918934528,31
599617615926619904,26
599617615934305408,26
599617615941990912,29
599617615949676288,26
599617615957361792,24
599617615965047168,16
599617615972732672,12
599617615980418048,24
599617615988103552,53
599617615995789056,62
599617616003474432,50
599617616011159936,43
599617616018845312,33
599617616026530816,19
599617616034216192,24
599617616041901696,31
599617616049587200,26
599617616057272576,24
599617616064958080,26
599617616072643456,26
599617616080328960,24
599617616088014464,12
599617616095699840,-62
599617616103385344,-166
599617616111070720,-72
599617616118756224,340
599617616126441600,795
599617616134127104,763
599617616141812608,210
599617616149497984,-164
599617616157183488,-89
599617616164868864,-2
599617616172554368,-33
599617616180239744,-33
599617616187925248,-19
599617616195610752,-24
599617616203296128,-19
599617616210981632,-9
599617616218667008,-7
599617616226352512,-2
599617616234037863,2
599617616241723392,4
599617616249408896,4
599617616257094272,7
599617616264779776,12
599617616272465152,16
599617616280150656,21
599617616287836032,19
599617616295521536,21
599617616303207040,26
599617616310892416,29
599617616318577920,29
599617616326263296,33
599617616333948800,36
599617616341634176,38
599617616349319680,41
599617616357005184,43
599617616364690560,45
599617616372376064,50
599617616380061440,50
599617616387746944,48
599617616395432448,43
599617616403117824,33
599617616410803328,21
599617616418488704,12
599617616426174208,7
599617616433859584,4
599617616441545088,0
599617616449230592,0
599617616456915968,0
599617616464601472,0
599617616472286848,2
599617616479972352,7
599617616487657728,4
599617616495343232,7
599617616503028736,9
599617616510714112,9
599617616518399616,9
599617616526084992,9
599617616533770496,9
599617616541455872,12
599617616549141376,14
599617616556826880,16
599617616564512256,14
599617616572197760,16
599617616579883136,19
599617616587568640,19
599617616595254016,21
599617616602939520,21
599617616610625024,21
599617616618310400,21
599617616625995904,24
599617616633681280,24
599617616641366784,19
599617616649052160,21
599617616656737664,24
599617616664423168,24
599617616672108544,21
599617616679794048,21
599617616687479424,21
599617616695164928,21
599617616702850432,21
599617616710535808,21
599617616718221312,21
599617616725906688,21
599617616733592192,21
599617616741277568,24
599617616748963072,21
599617616756648576,21
599617616764333952,21
599617616772019456,24
599617616779704832,24
599617616787390336,21
599617616795075688,21
599617616802761216,24
599617616810446720,24
599617616818132096,21
599617616825817600,24
599617616833502976,24
599617616841188480,24
599617616848873856,21
599617616856559360,24
599617616864244864,24
599617616871930240,24
599617616879615744,21
599617616887301120,24
599617616894986624,26
599617616902672000,26
599617616910357504,24
599617616918043008,24
599617616925728384,24
599617616933413888,19
599617616941099264,14
599617616948784768,9
599617616956470272,7
599617616964155648,29
599617616971841152,58
599617616979526528,60
599617616987212032,45
599617616994897408,38
599617617002582912,26
599617617010268416,14
599617617017953792,21
599617617025639296,26
599617617033324672,24
599617617041010176,21
599617617048695552,24
599617617056381056,24
599617617064066560,21
599617617071751936,-7
599617617079437440,-108
599617617087122816,-183
599617617094808320,7
599617617102493696,502
599617617110179200,916
599617617117864704,720
599617617125550080,111
599617617133235584,-164
599617617140920960,-53
599617617148606464,-2
599617617156291840,-50
599617617163977344,-53
599617617171662848,-33
599617617179348224,-33
599617617187033728,-31
599617617194719104,-21
599617617202404608,-16
599617617210089984,-14
599617617217775488,-9
599617617225460992,-7
599617617233146368,-4
599617617240831872,-2
599617617248517248,2
599617617256202752,4
599617617263888256,7
599617617271573632,9
599617617279259136,12
599617617286944512,14
599617617294630016,16
599617617302315392,19
599617617310000896,19
599617617317686400,21
599617617325371776,26
599617617333057280,31
599617617340742656,33
599617617348428160,33
599617617356113513,36
599617617363799040,41
599617617371484544,41
599617617379169920,33
599617617386855424,24
599617617394540800,14
599617617402226304,4
599617617409911680,0
599617617417597184,-4
599617617425282688,-7
599617617432968064,-4
599617617440653568,-4
599617617448338944,-4
599617617456024448,-4
599617617463709824,-2
599617617471395328,0
599617617479080832,2
599617617486766208,2
599617617494451712,2
599617617502137088,4
599617617509822592,7
599617617517508096,7
599617617525193472,9
599617617532878976,12
599617617540564352,12
599617617548249856,14
599617617555935232,16
599617617563620736,16
599617617571306240,19
599617617578991616,19
599617617586677120,21
599617617594362496,21
599617617602048000,19
599617617609733376,21
599617617617418880,21
599617617625104384,19
599617617632789760,21
599617617640475264,21
599617617648160640,21
599617617655846144,19
599617617663531520,19
599617617671217024,19
599617617678902528,16
599617617686587904,14
599617617694273408,14
599617617701958784,14
599617617709644288,14
599617617717329664,16
599617617725015168,14
599617617732700672,12
599617617740386048,12
599617617748071552,9
599617617755756928,9
599617617763442432,12
599617617771127808,12
599617617778813312,12
599617617786498816,9
599617617794184192,12
599617617801869696,12
599617617809555072,12
599617617817240576,12
599617617824926080,12
599617617832611456,14
599617617840296960,12
599617617847982336,12
599617617855667840,14
599617617863353216,14
599617617871038720,14
599617617878724224,14
599617617886409600,12
599617617894095104,7
599617617901780480,0
599617617909465984,-2
599617617917151338,16
599617617924836864,45
599617617932522368,58
599617617940207744,48
599617617947893248,38
599617617955578624,21
599617617963264128,9
599617617970949504,14
599617617978635008,21
599617617986320512,16
599617617994005888,14
599617618001691392,19
599617618009376768,19
599617618017062272,16
599617618024747648,-4
599617618032433152,-101
599617618040118656,-190
599617618047804032,-24
599617618055489536,454
599617618063174912,887
599617618070860416,749
599617618078545920,149
599617618086231296,-181
599617618093916800,-94
599617618101602176,-9
599617618109287680,-31
599617618116973056,-48
599617618124658560,-38
599617618132344064,-31
599617618140029440,-26
599617618147714944,-19
599617618155400320,-14
599617618163085824,-9
599617618170771200,-7
599617618178456704,-2
599617618186142208,0
599617618193827584,2
599617618201513088,7
599617618209198464,12
599617618216883968,14
599617618224569344,16
599617618232254848,19
599617618239940352,19
599617618247625728,21
599617618255311232,29
599617618262996608,31
599617618270682112,31
599617618278367488,36
599617618286052992,41
599617618293738496,43
599617618301423872,43
599617618309109376,45
599617618316794752,50
599617618324480256,48
599617618332165632,36
599617618339851136,24
599617618347536640,12
599617618355222016,2
599617618362907520,-2
599617618370592896,-4
599617618378278400,-7
599617618385963904,-9
599617618393649280,-7
599617618401334784,-7
599617618409020160,-4
599617618416705664,-2
599617618424391040,0
599617618432076544,2
599617618439762048,2
599617618447447424,4
599617618455132928,7
599617618462818304,12
599617618470503808,12
599617618478189163,12
599617618485874688,14
599617618493560192,16
599617618501245568,19
599617618508931072,21
599617618516616448,21
599617618524301952,21
599617618531987328,24
599617618539672832,24
599617618547358336,24
599617618555043712,24
599617618562729216,24
599617618570414592,26
599617618578100096,26
599617618585785472,24
599617618593470976,24
599617618601156480,24
599617618608841856,24
599617618616527360,26
599617618624212736,26
599617618631898240,26
599617618639583744,26
599617618647269120,24
599617618654954624,26
599617618662640000,26
599617618670325504,26
599617618678010880,26
599617618685696384,26
599617618693381888,29
599617618701067264,26
599617618708752768,26
599617618716438144,29
599617618724123648,29
599617618731809024,29
599617618739494528,29
599617618747180032,31
599617618754865408,31
599617618762550912,31
599617618770236288,31
599617618777921792,31
599617618785607168,29
599617618793292672,24
599617618800978176,14
599617618808663552,12
599617618816349056,31
599617618824034432,62
599617618831719936,74
599617618839405312,62
599617618847090816,53
599617618854776320,36
599617618862461696,21
599617618870147200,31
599617618877832576,36
599617618885518080,31
599617618893203456,31
599617618900888960,36
599617618908574464,36
599617618916259840,31
599617618923945344,-2
599617618931630720,-111
599617618939316224,-164
599617618947001728,82
599617618954687104,594
599617618962372608,920
599617618970057984,618
599617618977743488,16
599617618985428864,-188
599617618993114368,-60
599617619000799872,2
599617619008485248,-12
599617619016170752,-21
599617619023856128,-21
599617619031541632,-12
599617619039226988,-4
599617619046912896,0
599617619054598784,4
599617619062284672,7
599617619069970560,9
599617619077656320,16
599617619085342208,21
599617619093028096,21
599617619100713984,26
599617619108399872,31
599617619116085760,33
599617619123771520,36
599617619131457408,41
599617619139143296,43
599617619146829184,45
599617619154515072,50
599617619162200960,53
599617619169886720,58
599617619177572608,62
599617619185258496,62
599617619192944384,65
599617619200630272,65
599617619208316160,67
599617619216002048,65
599617619223687808,60
599617619231373696,48
599617619239059584,33
599617619246745472,24
599617619254431360,16
599617619262117248,9
599617619269803008,7
599617619277488896,7
599617619285174784,7
599617619292860672,7
599617619300546560,7
599617619308232448,9
599617619315918208,12
599617619323604096,12
599617619331289984,12
599617619338975872,14
599617619346661760,19
599617619354347648,19
599617619362033536,19
599617619369719296,24
599617619377405184,26
599617619385091072,26
599617619392776960,26
599617619400462848,26
599617619408148736,29
599617619415834496,29
599617619423520384,29
599617619431206272,29
599617619438892160,29
599617619446578048,29
599617619454263936,26
599617619461949696,26
599617619469635584,24
599617619477321472,26
599617619485007360,24
599617619492693248,21
599617619500379136,21
599617619508065024,26
599617619515750784,24
599617619523436672,24
599617619531122560,24
599617619538808448,21
599617619546494336,21
599617619554180224,24
599617619561865984,24
599617619569551872,24
599617619577237760,21
599617619584923648,21
599617619592609536,24
599617619600295335,24
599617619607980800,24
599617619615666304,24
599617619623351680,24
599617619631037184,19
599617619638722560,12
599617619646408064,7
599617619654093440,21
599617619661778944,48
599617619669464448,62
599617619677149824,55
599617619684835328,41
599617619692520704,26
599617619700206208,16
599617619707891584,19
599617619715577088,24
599617619723262592,21
599617619730947968,19
599617619738633472,19
599617619746318848,19
599617619754004352,19
599617619761689856,-2
599617619769375232,-91
599617619777060736,-171
599617619784746112,4
599617619792431616,468
599617619800116992,824
599617619807802496,577
599617619815488000,-41
599617619823173376,-263
599617619830858880,-113
599617619838544256,-55
599617619846229760,-29
599617619853915136,19
599617619861600640,-9
599617619869286144,-26
599617619876971520,4
599617619884657024,7
599617619892342400,0
599617619900027904,12
599617619907713280,16
599617619915398784,14
599617619923084288,16
599617619930769664,21
599617619938455168,24
599617619946140544,29
599617619953826048,36
599617619961511424,38
599617619969196928,41
599617619976882432,45
599617619984567808,50
599617619992253312,55
599617619999938688,62
599617620007624192,67
599617620015309568,77
599617620022995072,82
599617620030680576,87
599617620038365952,89
599617620046051456,94
599617620053736832,87
599617620061422336,74
599617620069107840,53
599617620076793216,26
599617620084478720,7
599617620092164096,-7
599617620099849600,-19
599617620107534976,-24
599617620115220480,-24
599617620122905984,-21
599617620130591360,-21
599617620138276864,-24
599617620145962240,-21
599617620153647744,-19
599617620161333160,-16
599617620169018624,-14
599617620176704128,-12
599617620184389504,-12
599617620192075008,-7
599617620199760384,-4
599617620207445888,-4
599617620215131264,-2
599617620222816768,0
599617620230502272,0
599617620238187648,0
599617620245873152,2
599617620253558528,4
599617620261244032,4
599617620268929408,4
599617620276614912,4
599617620284300416,4
599617620291985792,4
599617620299671296,4
599617620307356672,4
599617620315042176,4
599617620322727680,7
599617620330413056,4
599617620338098560,0
599617620345783936,2
599617620353469440,4
599617620361154816,-2
599617620368840320,-7
599617620376525824,2
599617620384211200,29
599617620391896704,45
599617620399582080,45
599617620407267584,36
599617620414952960,19
599617620422638464,4
599617620430323968,2
599617620438009344,9
599617620445694848,9
599617620453380224,7
599617620461065728,7
599617620468751104,7
599617620476436608,9
599617620484122112,9
599617620491807488,-16
599617620499492992,-108
599617620507178368,-171
599617620514863872,33
599617620522549248,493
599617620530234752,768
599617620537920256,439
599617620545605632,-135
599617620553291136,-253
599617620560976512,-103
599617620568662016,-79
599617620576347392,-33
599617620584032896,29
599617620591718400,-7
599617620599403776,-21
599617620607089280,9
599617620614774656,9
599617620622460160,0
599617620630145664,14
599617620637831040,21
599617620645516544,16
599617620653201920,21
599617620660887424,26
599617620668572800,31
599617620676258304,36
599617620683943808,38
599617620691629184,38
599617620699314688,45
599617620707000064,53
599617620714685568,55
599617620722370985,60
599617620730056448,67
599617620737741952,74
599617620745427328,82
599617620753112832,87
599617620760798208,89
599617620768483712,94
599617620776169088,94
599617620783854592,84
599617620791540096,62
599617620799225472,31
599617620806910976,7
599617620814596352,-9
599617620822281856,-19
599617620829967232,-26
599617620837652736,-29
599617620845338240,-29
599617620853023616,-29
599617620860709120,-29
599617620868394496,-26
599617620876080000,-24
599617620883765504,-24
599617620891450880,-21
599617620899136384,-16
599617620906821760,-14
599617620914507264,-14
599617620922192640,-9
599617620929878144,-7
599617620937563648,-4
599617620945249024,-4
599617620952934528,-2
599617620960619904,-2
599617620968305408,0
599617620975990784,2
599617620983676288,2
599617620991361792,4
599617620999047168,4
599617621006732672,2
599617621014418048,2
599617621022103552,4
599617621029788928,7
599617621037474432,2
599617621045159936,2
599617621052845312,2
599617621060530816,-4
599617621068216192,0
599617621075901696,26
599617621083587072,45
599617621091272576,41
599617621098958080,36
599617621106643456,26
599617621114328960,4
599617621122014336,-2
599617621129699840,4
599617621137385216,7
599617621145070720,4
599617621152756224,7
599617621160441600,9
599617621168127104,9
599617621175812480,4
599617621183497984,-4
599617621191183488,-74
599617621198868864,-161
599617621206554368,-48
599617621214239744,352
599617621221925248,713
599617621229610624,551
599617621237296128,-4
599617621244981632,-246
599617621252667008,-120
599617621260352512,-60
599617621268037888,-36
599617621275723392,19
599617621283408810,2
599617621291094272,-19
599617621298779776,4
599617621306465152,12
599617621314150656,4
599617621321836032,14
599617621329521536,16
599617621337206912,16
599617621344892416,21
599617621352577920,26
599617621360263296,26
599617621367948800,31
599617621375634176,36
599617621383319680,38
599617621391005056,41
599617621398690560,45
599617621406376064,48
599617621414061440,53
599617621421746944,58
599617621429432320,60
599617621437117824,70
599617621444803328,72
599617621452488704,74
599617621460174208,77
599617621467859584,74
599617621475545088,67
599617621483230464,55
599617621490915968,33
599617621498601472,9
599617621506286848,-2
599617621513972352,-12
599617621521657728,-19
599617621529343232,-19
599617621537028608,-21
599617621544714112,-24
599617621552399616,-24
599617621560084992,-19
599617621567770496,-16
599617621575455872,-16
599617621583141376,-14
599617621590826752,-9
599617621598512256,-9
599617621606197760,-9
599617621613883136,-9
599617621621568640,-7
599617621629254016,0
599617621636939520,0
599617621644624896,0
599617621652310400,0
599617621659995904,0
599617621667681280,2
599617621675366784,4
599617621683052160,2
599617621690737664,0
599617621698423040,2
599617621706108544,2
599617621713794048,2
599617621721479424,0
599617621729164928,0
599617621736850304,-4
599617621744535808,0
599617621752221312,21
599617621759906688,41
599617621767592192,38
599617621775277568,31
599617621782963072,24
599617621790648448,7
599617621798333952,-2
599617621806019456,2
599617621813704832,4
599617621821390336,2
599617621829075712,7
599617621836761216,9
599617621844446635,9
599617621852132096,9
599617621859817600,0
599617621867502976,-60
599617621875188480,-149
599617621882873856,-82
599617621890559360,270
599617621898244736,655
599617621905930240,584
599617621913615744,74
599617621921301120,-219
599617621928986624,-120
599617621936672000,-43
599617621944357504,-31
599617621952042880,4
599617621959728384,0
599617621967413888,-19
599617621975099264,-2
599617621982784768,9
599617621990470144,4
599617621998155648,9
599617622005841152,14
599617622013526528,16
599617622021212032,19
599617622028897408,19
599617622036582912,26
599617622044268288,31
599617622051953792,29
599617622059639296,31
599617622067324672,41
599617622075010176,41
599617622082695552,43
599617622090381056,48
599617622098066432,48
599617622105751936,53
599617622113437440,60
599617622121122816,62
599617622128808320,62
599617622136493696,67
599617622144179200,67
599617622151864576,60
599617622159550080,45
599617622167235584,29
599617622174920960,14
599617622182606464,0
599617622190291840,-9
599617622197977344,-12
599617622205662720,-12
599617622213348224,-12
599617622221033728,-12
599617622228719104,-9
599617622236404608,-9
599617622244089984,-9
599617622251775488,-9
599617622259460864,-7
599617622267146368,-4
599617622274831872,-2
599617622282517248,-2
599617622290202752,-2
599617622297888128,2
599617622305573632,7
599617622313259136,7
599617622320944512,4
599617622328630016,7
599617622336315392,9
599617622344000896,7
599617622351686272,9
599617622359371776,14
599617622367057280,14
599617622374742656,9
599617622382428160,9
599617622390113536,14
599617622397799040,9
599617622405484460,4
599617622413169920,4
599617622420855424,12
599617622428540800,29
599617622436226304,45
599617622443911680,43
599617622451597184,38
599617622459282560,31
599617622466968064,12
599617622474653568,4
599617622482338944,9
599617622490024448,12
599617622497709824,9
599617622505395328,12
599617622513080704,12
599617622520766208,12
599617622528451712,12
599617622536137088,4
599617622543822592,-50
599617622551507968,-140
599617622559193472,-70
599617622566878976,275
599617622574564352,640
599617622582249856,560
599617622589935232,74
599617622597620736,-193
599617622605306112,-99
599617622612991616,-29
599617622620677120,-29
599617622628362496,0
599617622636048000,-2
599617622643733376,-14
599617622651418880,0
599617622659104256,4
599617622666789760,4
599617622674475264,12
599617622682160640,14
599617622689846144,14
599617622697531520,16
599617622705217024,21
599617622712902400,24
599617622720587904,26
599617622728273408,29
599617622735958784,31
599617622743644288,29
599617622751329664,36
599617622759015168,43
599617622766700544,43
599617622774386048,45
599617622782071552,50
599617622789756928,53
599617622797442432,55
599617622805127808,58
599617622812813312,60
599617622820498816,58
599617622828184192,53
599617622835869696,41
599617622843555072,26
599617622851240576,14
599617622858925952,0
599617622866611456,-7
599617622874296960,-7
599617622881982336,-9
599617622889667840,-9
599617622897353216,-7
599617622905038720,-4
599617622912724096,-7
599617622920409600,-7
599617622928095104,-4
599617622935780480,-2
599617622943465984,-2
599617622951151360,2
599617622958836864,2
599617622966522289,2
599617622974207744,4
599617622981893248,7
599617622989578624,9
599617622997264128,7
599617623004949504,4
599617623012635008,14
599617623020320384,14
599617623028005888,9
599617623035691392,12
599617623043376768,16
599617623051062272,14
599617623058747648,14
599617623066433152,16
599617623074118528,16
599617623081804032,14
599617623089489536,14
599617623097174912,12
599617623104860416,14
599617623112545792,19
599617623120231296,14
599617623127916800,9
599617623135602176,9
599617623143287680,21
599617623150973056,41
599617623158658560,45
599617623166343936,41
599617623174029440,43
599617623181714944,29
599617623189400320,9
599617623197085824,12
599617623204771200,19
599617623212456704,14
599617623220142080,12
599617623227827584,19
599617623235513088,21
599617623243198464,16
599617623250883968,16
599617623258569344,0
599617623266254848,-74
599617623273940224,-130
599617623281625728,31
599617623289311232,418
599617623296996608,652
599617623304682112,391
599617623312367488,-60
599617623320052992,-164
599617623327738368,-41
599617623335423872,-12
599617623343109376,-14
599617623350794752,2
599617623358480256,-4
599617623366165632,-7
599617623373851136,7
599617623381536512,14
599617623389222016,9
599617623396907520,9
599617623404592896,16
599617623412278400,21
599617623419963776,21
599617623427649280,24
599617623435334784,26
599617623443020160,26
599617623450705664,31
599617623458391040,33
599617623466076544,36
599617623473761920,38
599617623481447424,38
599617623489132928,43
599617623496818304,48
599617623504503808,50
599617623512189184,50
599617623519874688,53
599617623527560114,58
599617623535245568,58
599617623542931072,55
599617623550616448,45
599617623558301952,33
599617623565987328,26
599617623573672832,12
599617623581358208,-2
599617623589043712,-2
599617623596729216,-2
599617623604414592,-9
599617623612100096,-7
599617623619785472,0
599617623627470976,-2
599617623635156352,-4
599617623642841856,-4
599617623650527360,-2
599617623658212736,0
599617623665898240,0
599617623673583616,0
599617623681269120,0
599617623688954624,2
599617623696640000,4
599617623704325504,7
599617623712010880,7
599617623719696384,4
599617623727381760,7
599617623735067264,7
599617623742752768,9
599617623750438144,14
599617623758123648,16
599617623765809024,16
599617623773494528,14
599617623781179904,16
599617623788865408,14
599617623796550912,12
599617623804236288,19
599617623811921792,24
599617623819607168,19
599617623827292672,16
599617623834978048,19
599617623842663552,19
599617623850349056,19
599617623858034432,21
599617623865719936,19
599617623873405312,19
599617623881090816,19
599617623888776192,21
599617623896461696,24
599617623904147200,24
599617623911832576,16
599617623919518080,16
599617623927203456,26
599617623934888960,24
599617623942574336,16
599617623950259840,21
599617623957945344,24
599617623965630720,21
599617623973316224,19
599617623981001600,21
599617623988687104,26
599617623996372608,21
599617624004057984,16
599617624011743488,21
599617624019428864,19
599617624027114368,12
599617624034799744,31
599617624042485248,50
599617624050170752,50
599617624057856128,43
599617624065541632,36
599617624073227008,24
599617624080912512,14
599617624088597939,14
599617624096283776,19
599617624103969664,21
599617624111655552,19
599617624119341440,14
599617624127027200,19
599617624134713088,24
599617624142398976,14
599617624150084864,-24
599617624157770752,-101
599617624165456640,-96
599617624173142400,145
599617624180828288,502
599617624188514176,553
599617624196200064,174
599617624203885952,-145
599617624211571840,-108
599617624219257600,-16
599617624226943488,-19
599617624234629376,-2
599617624242315264,12
599617624250001152,0
599617624257687040,2
599617624265372928,12
599617624273058688,12
599617624280744576,14
599617624288430464,21
599617624296116352,21
599617624303802240,19
599617624311488128,26
599617624319173888,31
599617624326859776,31
599617624334545664,29
599617624342231552,33
599617624349917440,33
599617624357603328,33
599617624365289088,41
599617624372974976,43
599617624380660864,38
599617624388346752,45
599617624396032640,50
599617624403718528,50
599617624411404416,53
599617624419090176,55
599617624426776064,53
599617624434461952,50
599617624442147840,50
599617624449833728,45
599617624457519616,26
599617624465205376,12
599617624472891264,4
599617624480577152,2
599617624488263040,2
599617624495948928,-4
599617624503634816,-7
599617624511320576,-2
599617624519006464,0
599617624526692352,0
599617624534378240,2
599617624542064128,2
599617624549750016,0
599617624557435776,2
599617624565121664,4
599617624572807552,4
599617624580493440,4
599617624588179328,7
599617624595865216,9
599617624603551104,12
599617624611236864,12
599617624618922752,9
599617624626608640,9
599617624634294528,12
599617624641980416,19
599617624649666282,19
599617624657351808,14
599617624665037312,16
599617624672722688,19
599617624680408192,14
599617624688093568,16
599617624695779072,21
599617624703464448,19
599617624711149952,19
599617624718835456,24
599617624726520832,21
599617624734206336,16
599617624741891712,19
599617624749577216,21
599617624757262592,24
599617624764948096,24
599617624772633600,24
599617624780318976,24
599617624788004480,24
599617624795689856,19
599617624803375360,24
599617624811060864,26
599617624818746240,26
599617624826431744,24
599617624834117120,24
599617624841802624,24
599617624849488000,26
599617624857173504,24
599617624864859008,21
599617624872544384,26
599617624880229888,26
599617624887915264,26
599617624895600768,26
599617624903286144,26
599617624910971648,29
599617624918657152,26
599617624926342528,26
599617624934028032,29
599617624941713408,29
599617624949398912,26
599617624957084288,24
599617624964769792,24
599617624972455296,26
599617624980140672,24
599617624987826176,24
599617624995511552,19
599617625003197056,19
599617625010882432,36
599617625018567936,55
599617625026253440,55
599617625033938816,45
599617625041624320,38
599617625049309696,26
599617625056995200,21
599617625064680576,26
599617625072366080,26
599617625080051584,24
599617625087736960,24
599617625095422464,26
599617625103107840,29
599617625110793344,26
599617625118478848,12
599617625126164224,-41
599617625133849728,-106
599617625141535104,-19
599617625149220608,302
599617625156905984,587
599617625164591488,456
599617625172276992,31
599617625179962368,-149
599617625187647872,-45
599617625195333248,0
599617625203018752,-7
599617625210704107,14
599617625218389632,12
599617625226075136,2
599617625233760512,14
599617625241446016,21
599617625249131392,16
599617625256816896,21
599617625264502272,29
599617625272187776,29
599617625279873280,26
599617625287558656,31
599617625295244160,33
599617625302929536,33
599617625310615040,38
599617625318300416,41
599617625325985920,43
599617625333671424,43
599617625341356800,45
599617625349042304,50
599617625356727680,48
599617625364413184,50
599617625372098688,60
599617625379784064,62
599617625387469568,62
599617625395154944,62
599617625402840448,60
599617625410525824,58
599617625418211328,55
599617625425896832,48
599617625433582208,33
599617625441267712,21
599617625448953088,16
599617625456638592,12
599617625464323968,7
599617625472009472,4
599617625479694976,4
599617625487380352,9
599617625495065856,9
599617625502751232,9
599617625510436736,9
599617625518122112,12
599617625525807616,12
599617625533493120,12
599617625541178496,12
599617625548864000,14
599617625556549376,16
599617625564234880,14
599617625571920256,16
599617625579605760,21
599617625587291264,24
599617625594976640,21
599617625602662144,19
599617625610347520,21
599617625618033024,26
599617625625718400,26
599617625633403904,24
599617625641089408,26
599617625648774784,29
599617625656460288,24
599617625664145664,21
599617625671831168,21
599617625679516672,24
599617625687202048,24
599617625694887552,24
599617625702572928,24
599617625710258432,24
599617625717943808,24
599617625725629312,24
599617625733314816,26
599617625741000192,29
599617625748685696,24
599617625756371072,24
599617625764056576,26
599617625771741932,24
599617625779427456,24
599617625787112960,26
599617625794798336,26
599617625802483840,26
599617625810169216,24
599617625817854720,24
599617625825540096,26
599617625833225600,26
599617625840911104,24
599617625848596480,26
599617625856281984,26
599617625863967360,24
599617625871652864,26
599617625879338240,26
599617625887023744,26
599617625894709248,29
599617625902394624,29
599617625910080128,29
599617625917765504,29
599617625925451008,26
599617625933136512,26
599617625940821888,29
599617625948507392,31
599617625956192768,26
599617625963878272,26
599617625971563648,29
599617625979249152,31
599617625986934656,29
599617625994620032,29
599617626002305536,29
599617626009990912,26
599617626017676416,19
599617626025361792,19
599617626033047296,33
599617626040732800,53
599617626048418176,58
599617626056103680,53
599617626063789056,45
599617626071474560,31
599617626079159936,21
599617626086845440,26
599617626094530944,31
599617626102216320,29
599617626109901824,26
599617626117587200,26
599617626125272704,29
599617626132958080,29
599617626140643584,16
599617626148329088,-41
599617626156014464,-120
599617626163699968,-45
599617626171385344,290
599617626179070848,630
599617626186756352,531
599617626194441728,72
599617626202127232,-159
599617626209812608,-67
599617626217498112,-12
599617626225183488,-14
599617626232868992,14
599617626240554496,9
599617626248239872,-4
599617626255925376,9
599617626263610752,16
599617626271296256,12
599617626278981632,16
599617626286667136,24
599617626294352640,24
599617626302038016,26
599617626309723520,29
599617626317408896,29
599617626325094400,33
599617626332779761,33
599617626340465280,36
599617626348150784,41
599617626355836160,41
599617626363521664,41
599617626371207040,45
599617626378892544,48
599617626386577920,50
599617626394263424,55
599617626401948928,58
599617626409634304,60
599617626417319808,58
599617626425005184,60
599617626432690688,62
599617626440376064,58
599617626448061568,48
599617626455747072,36
599617626463432448,24
599617626471117952,16
599617626478803328,7
599617626486488832,0
599617626494174336,0
599617626501859712,2
599617626509545216,0
599617626517230592,0
599617626524916096,2
599617626532601472,4
599617626540286976,2
599617626547972480,2
599617626555657856,7
599617626563343360,9
599617626571028736,7
599617626578714240,7
599617626586399616,9
599617626594085120,12
599617626601770624,14
599617626609456000,14
599617626617141504,16
599617626624826880,19
599617626632512384,21
599617626640197760,19
599617626647883264,16
599617626655568768,21
599617626663254144,21
599617626670939648,19
599617626678625024,19
599617626686310528,21
599617626693995904,21
599617626701681408,21
599617626709366912,21
599617626717052288,21
599617626724737792,24
599617626732423168,24
599617626740108672,21
599617626747794048,21
599617626755479552,21
599617626763165056,24
599617626770850432,24
599617626778535936,21
599617626786221312,24
599617626793906816,24
599617626801592320,24
599617626809277696,24
599617626816963200,24
599617626824648576,21
599617626832334080,21
599617626840019456,24
599617626847704960,24
599617626855390464,21
599617626863075840,26
599617626870761344,26
599617626878446720,24
599617626886132224,24
599617626893817586,29
599617626901503104,29
599617626909188608,26
599617626916873984,26
599617626924559488,26
599617626932244864,29
599617626939930368,31
599617626947615744,31
599617626955301248,31
599617626962986752,31
599617626970672128,31
599617626978357632,31
599617626986043008,29
599617626993728512,29
599617627001413888,24
599617627009099392,19
599617627016784896,21
599617627024470272,43
599617627032155776,60
599617627039841152,60
599617627047526656,50
599617627055212160,38
599617627062897536,26
599617627070583040,24
599617627078268416,29
599617627085953920,31
599617627093639296,29
599617627101324800,29
599617627109010304,29
599617627116695680,29
599617627124381184,29
599617627132066560,-4
599617627139752064,-101
599617627147437440,-135
599617627155122944,96
599617627162808448,543
599617627170493824,763
599617627178179328,410
599617627185864704,-89
599617627193550208,-157
599617627201235584,-29
599617627208921088,-19
599617627216606592,-14
599617627224291968,7
599617627231977472,-4
599617627239662848,-2
599617627247348352,12
599617627255033728,9
599617627262719232,12
599617627270404736,16
599617627278090112,16
599617627285775616,21
599617627293460992,26
599617627301146496,29
599617627308831872,31
599617627316517376,36
599617627324202880,36
599617627331888256,38
599617627339573760,43
599617627347259136,43
599617627354944640,41
599617627362630144,43
599617627370315520,50
599617627378001024,58
599617627385686400,67
599617627393371904,70
599617627401057280,70
599617627408742784,74
599617627416428288,79
599617627424113664,74
599617627431799168,65
599617627439484544,58
599617627447170048,48
599617627454855411,26
599617627462540928,16
599617627470226432,16
599617627477911808,12
599617627485597312,4
599617627493282688,4
599617627500968192,7
599617627508653568,7
599617627516339072,4
599617627524024576,4
599617627531709952,4
599617627539395456,7
599617627547080832,9
599617627554766336,4
599617627562451712,2
599617627570137216,12
599617627577822720,16
599617627585508096,16
599617627593193600,16
599617627600878976,19
599617627608564480,21
599617627616249984,21
599617627623935360,19
599617627631620864,21
599617627639306240,24
599617627646991744,24
599617627654677120,19
599617627662362624,21
599617627670048128,21
599617627677733504,19
599617627685419008,16
599617627693104384,19
599617627700789888,16
599617627708475264,16
599617627716160768,21
599617627723846272,19
599617627731531648,14
599617627739217152,14
599617627746902528,19
599617627754588032,21
599617627762273408,21
599617627769958912,24
599617627777644416,26
599617627785329792,26
599617627793015296,24
599617627800700672,26
599617627808386176,31
599617627816071552,26
599617627823757056,24
599617627831442560,26
599617627839127936,26
599617627846813440,21
599617627854498816,21
599617627862184320,21
599617627869869696,16
599617627877555200,14
599617627885240704,21
599617627892926080,21
599617627900611584,16
599617627908296960,16
599617627915982464,16
599617627923667968,14
599617627931353344,16
599617627939038848,16
599617627946724224,14
599617627954409728,9
599617627962095104,2
599617627969780608,-4
599617627977466112,2
599617627985151488,26
599617627992836992,45
599617628000522368,43
599617628008207872,29
599617628015893236,16
599617628023579136,4
599617628031265024,-2
599617628038950912,7
599617628046636800,9
599617628054322560,4
599617628062008448,4
599617628069694336,4
599617628077380224,0
599617628085066112,-2
599617628092752000,-43
599617628100437760,-149
599617628108123648,-166
599617628115809536,116
599617628123495424,589
599617628131181312,773
599617628138867200,357
599617628146552960,-157
599617628154238848,-195
599617628161924736,-58
599617628169610624,-50
599617628177296512,-36
599617628184982400,-16
599617628192668288,-36
599617628200354048,-29
599617628208039936,-9
599617628215725824,-16
599617628223411712,-19
599617628231097600,-9
599617628238783488,-4
599617628246469248,-4
599617628254155136,0
599617628261841024,4
599617628269526912,7
599617628277212800,7
599617628284898688,7
599617628292584448,9
599617628300270336,12
599617628307956224,16
599617628315642112,24
599617628323328000,26
599617628331013888,31
599617628338699776,41
599617628346385536,50
599617628354071424,50
599617628361757312,53
599617628369443200,60
599617628377129088,60
599617628384814976,55
599617628392500736,50
599617628400186624,33
599617628407872512,14
599617628415558400,4
599617628423244288,-7
599617628430930176,-16
599617628438615936,-19
599617628446301824,-19
599617628453987712,-21
599617628461673600,-19
599617628469359488,-16
599617628477045376,-19
599617628484731136,-19
599617628492417024,-14
599617628500102912,-14
599617628507788800,-14
599617628515474688,-12
599617628523160576,-9
599617628530846464,-9
599617628538532224,-9
599617628546218112,-4
599617628553904000,-2
599617628561589888,-7
599617628569275776,-4
599617628576961579,0
599617628584647040,-2
599617628592332544,0
599617628600017920,2
599617628607703424,0
599617628615388800,-2
599617628623074304,-2
599617628630759680,0
599617628638445184,2
599617628646130688,2
599617628653816064,0
599617628661501568,2
599617628669186944,2
599617628676872448,0
599617628684557824,0
599617628692243328,0
599617628699928832,0
599617628707614208,0
599617628715299712,2
599617628722985088,4
599617628730670592,4
599617628738356096,4
599617628746041472,2
599617628753726976,2
599617628761412352,2
599617628769097856,4
599617628776783232,4
599617628784468736,4
599617628792154240,4
599617628799839616,4
599617628807525120,2
599617628815210496,-2
599617628822896000,-4
599617628830581376,0
599617628838266880,0
599617628845952384,-2
599617628853637760,2
599617628861323264,2
599617628869008640,0
599617628876694144,0
599617628884379520,0
599617628892065024,-2
599617628899750528,-12
599617628907435904,-16
599617628915121408,0
599617628922806784,31
599617628930492288,45
599617628938177664,33
599617628945863168,24
599617628953548672,12
599617628961234048,-4
599617628968919552,-2
599617628976604928,7
599617628984290432,0
599617628991975808,-2
599617628999661312,2
599617629007346816,2
599617629015032192,2
599617629022717696,-12
599617629030403072,-99
599617629038088576,-198
599617629045774080,-65
599617629053459456,384
599617629061144960,816
599617629068830336,708
599617629076515840,106
599617629084201216,-239
599617629091886720,-140
599617629099572224,-55
599617629107257600,-62
599617629114943104,-50
599617629122628480,-53
599617629130313984,-58
599617629137999404,-43
599617629145684864,-38
599617629153370368,-38
599617629161055744,-33
599617629168741248,-29
599617629176426624,-29
599617629184112128,-26
599617629191797504,-24
599617629199483008,-21
599617629207168512,-19
599617629214853888,-14
599617629222539392,-14
599617629230224768,-9
599617629237910272,-7
599617629245595648,-4
599617629253281152,0
599617629260966656,2
599617629268652032,2
599617629276337536,2
599617629284022912,9
599617629291708416,14
599617629299393920,16
599617629307079296,19
599617629314764800,21
599617629322450176,21
599617629330135680,12
599617629337821056,-2
599617629345506560,-14
599617629353192064,-24
599617629360877440,-31
599617629368562944,-36
599617629376248320,-38
599617629383933824,-36
599617629391619200,-36
599617629399304704,-33
599617629406990208,-33
599617629414675584,-36
599617629422361088,-31
599617629430046464,-24
599617629437731968,-26
599617629445417344,-26
599617629453102848,-24
599617629460788352,-19
599617629468473728,-16
599617629476159232,-14
599617629483844608,-12
599617629491530112,-7
599617629499215488,-7
599617629506900992,-4
599617629514586496,-4
599617629522271872,-2
599617629529957376,-2
599617629537642752,0
599617629545328256,2
599617629553013760,0
599617629560699136,-2
599617629568384640,2
599617629576070016,0
599617629583755520,2
599617629591440896,4
599617629599126400,2
599617629606811904,0
599617629614497280,4
599617629622182784,7
599617629629868160,4
599617629637553664,4
599617629645239040,7
599617629652924544,7
599617629660610048,7
599617629668295424,4
599617629675980928,4
599617629683666304,4
599617629691351808,4
599617629699037233,4
599617629706722688,4
599617629714408192,4
599617629722093568,4
599617629729779072,4
599617629737464448,4
599617629745149952,4
599617629752835328,2
599617629760520832,4
599617629768206336,7
599617629775891712,4
599617629783577216,0
599617629791262592,0
599617629798948096,-9
599617629806633472,-14
599617629814318976,9
599617629822004480,41
599617629829689856,43
599617629837375360,31
599617629845060736,24
599617629852746240,7
599617629860431744,-4
599617629868117120,2
599617629875802624,7
599617629883488000,4
599617629891173504,4
599617629898858880,4
599617629906544384,0
599617629914229888,-2
599617629921915264,-33
599617629929600768,-145
599617629937286144,-210
599617629944971648,14
599617629952657024,522
599617629960342528,877
599617629968028032,604
599617629975713408,-14
599617629983398912,-246
599617629991084288,-125
599617629998769792,-72
599617630006455168,-94
599617630014140672,-96
599617630021826176,-91
599617630029511552,-87
599617630037197056,-79
599617630044882432,-74
599617630052567936,-67
599617630060253312,-65
599617630067938816,-60
599617630075624320,-55
599617630083309696,-53
599617630090995200,-48
599617630098680576,-48
599617630106366080,-45
599617630114051456,-41
599617630121736960,-36
599617630129422464,-33
599617630137107840,-31
599617630144793344,-26
599617630152478720,-24
599617630160164224,-24
599617630167849728,-24
599617630175535104,-14
599617630183220608,-7
599617630190905984,-9
599617630198591488,-7
599617630206276864,0
599617630213962368,-2
599617630221647872,-7
599617630229333248,-12
599617630237018752,-26
599617630244704128,-48
599617630252389632,-55
599617630260075058,-58
599617630267760896,-60
599617630275446784,-62
599617630283132672,-60
599617630290818560,-58
599617630298504320,-55
599617630306190208,-53
599617630313876096,-48
599617630321561984,-43
599617630329247872,-41
599617630336933760,-36
599617630344619520,-31
599617630352305408,-31
599617630359991296,-31
599617630367677184,-26
599617630375363072,-21
599617630383048960,-16
599617630390734720,-14
599617630398420608,-14
599617630406106496,-12
599617630413792384,-9
599617630421478272,-7
599617630429164160,-4
599617630436850048,-4
599617630444535808,-2
599617630452221696,0
599617630459907584,-2
599617630467593472,-2
599617630475279360,0
599617630482965248,0
599617630490651008,0
599617630498336896,4
599617630506022784,4
599617630513708672,4
599617630521394560,7
599617630529080448,7
599617630536766208,7
599617630544452096,9
599617630552137984,7
599617630559823872,7
599617630567509760,12
599617630575195648,12
599617630582881536,9
599617630590567296,9
599617630598253184,12
599617630605939072,12
599617630613624960,14
599617630621310848,16
599617630628996736,14
599617630636682496,9
599617630644368384,12
599617630652054272,12
599617630659740160,4
599617630667426048,0
599617630675111936,0
599617630682797696,29
599617630690483584,58
599617630698169472,58
599617630705855360,50
599617630713541248,43
599617630721227136,24
599617630728912896,9
599617630736598784,16
599617630744284672,21
599617630751970560,16
599617630759656448,19
599617630767342336,21
599617630775028224,19
599617630782713984,19
599617630790399872,-4
599617630798085760,-108
599617630805771648,-181
599617630813457536,21
599617630821143401,517
599617630828828928,901
599617630836514432,671
599617630844199808,55
599617630851885312,-205
599617630859570688,-84
599617630867256192,-9
599617630874941568,-24
599617630882627072,-26
599617630890312576,-26
599617630897997952,-16
599617630905683456,-7
599617630913368832,-4
599617630921054336,-2
599617630928739712,4
599617630936425216,12
599617630944110720,14
599617630951796096,16
599617630959481600,21
599617630967166976,26
599617630974852480,29
599617630982537984,31
599617630990223360,36
599617630997908864,43
599617631005594240,45
599617631013279744,48
599617631020965120,53
599617631028650624,58
599617631036336128,60
599617631044021504,65
599617631051707008,72
599617631059392384,74
599617631067077888,77
599617631074763264,82
599617631082448768,87
599617631090134272,84
599617631097819648,67
599617631105505152,50
599617631113190528,38
599617631120876032,24
599617631128561408,16
599617631136246912,14
599617631143932416,9
599617631151617792,9
599617631159303296,12
599617631166988672,12
599617631174674176,12
599617631182359552,14
599617631190045056,12
599617631197730560,14
599617631205415936,19
599617631213101440,21
599617631220786816,19
599617631228472320,24
599617631236157696,26
599617631243843200,24
599617631251528704,24
599617631259214080,26
599617631266899584,29
599617631274584960,31
599617631282270464,31
599617631289955968,29
599617631297641344,29
599617631305326848,31
599617631313012224,26
599617631320697728,24
599617631328383104,24
599617631336068608,26
599617631343754112,24
599617631351439488,24
599617631359124992,26
599617631366810368,26
599617631374495872,26
599617631382181226,26
599617631389866752,26
599617631397552256,21
599617631405237632,19
599617631412923136,14
599617631420608512,9
599617631428294016,19
599617631435979392,50
599617631443664896,70
599617631451350400,60
599617631459035776,53
599617631466721280,41
599617631474406656,19
599617631482092160,14
599617631489777536,21
599617631497463040,24
599617631505148544,24
599617631512833920,24
599617631520519424,26
599617631528204800,29
599617631535890304,29
599617631543575808,-2
599617631551261184,-99
599617631558946688,-137
599617631566632064,116
599617631574317568,599
599617631582002944,836
599617631589688448,442
599617631597373952,-142
599617631605059328,-239
599617631612744832,-79
599617631620430208,-38
599617631628115712,9
599617631635801088,45
599617631643486592,12
599617631651172096,16
599617631658857472,48
599617631666542976,45
599617631674228352,43
599617631681913856,50
599617631689599232,55
599617631697284736,53
599617631704970240,58
599617631712655616,62
599617631720341120,60
599617631728026496,62
599617631735712000,65
599617631743397376,67
599617631751082880,72
599617631758768384,79
599617631766453760,84
599617631774139264,89
599617631781824640,94
599617631789510144,103
599617631797195520,113
599617631804881024,116
599617631812566528,120
599617631820251904,125
599617631827937408,125
599617631835622784,111
599617631843308288,87
599617631850993792,60
599617631858679168,33
599617631866364672,9
599617631874050048,0
599617631881735552,-7
599617631889420928,-16
599617631897106432,-16
599617631904791936,-12
599617631912477312,-12
599617631920162816,-12
599617631927848192,-9
599617631935533696,-4
599617631943219051,-2
599617631950904576,2
599617631958590080,0
599617631966275456,2
599617631973960960,9
599617631981646336,14
599617631989331840,12
599617631997017216,16
599617632004702720,19
599617632012388224,16
599617632020073600,19
599617632027759104,26
599617632035444480,29
599617632043129984,26
599617632050815360,26
599617632058500864,29
599617632066186368,31
599617632073871744,29
599617632081557248,24
599617632089242624,26
599617632096928128,29
599617632104613632,29
599617632112299008,24
599617632119984512,19
599617632127669888,16
599617632135355392,26
599617632143040768,53
599617632150726272,70
599617632158411776,65
599617632166097152,55
599617632173782656,43
599617632181468032,26
599617632189153536,24
599617632196838912,26
599617632204524416,26
599617632212209920,24
599617632219895296,24
599617632227580800,24
599617632235266176,24
599617632242951680,24
599617632250637056,0
599617632258322560,-91
599617632266008064,-157
599617632273693440,38
599617632281378944,483
599617632289064320,758
599617632296749824,447
599617632304435200,-125
599617632312120704,-261
599617632319806208,-99
599617632327491584,-58
599617632335177088,-14
599617632342862464,43
599617632350547968,9
599617632358233344,-4
599617632365918848,29
599617632373604352,26
599617632381289728,16
599617632388975232,26
599617632396660608,33
599617632404346112,31
599617632412031616,36
599617632419716992,43
599617632427402496,45
599617632435087872,45
599617632442773376,50
599617632450458752,55
599617632458144256,60
599617632465829760,67
599617632473515136,72
599617632481200640,74
599617632488886016,79
599617632496571520,89
599617632504256876,99
599617632511942656,103
599617632519628416,106
599617632527314304,108
599617632535000064,108
599617632542685824,99
599617632550371584,74
599617632558057472,45
599617632565743232,16
599617632573428992,-2
599617632581114880,-14
599617632588800640,-19
599617632596486400,-24
599617632604172288,-24
599617632611858048,-21
599617632619543808,-21
599617632627229568,-21
599617632634915456,-16
599617632642601216,-12
599617632650286976,-12
599617632657972864,-12
599617632665658624,-9
599617632673344384,-4
599617632681030272,-2
599617632688716032,-4
599617632696401792,0
599617632704087552,4
599617632711773440,2
599617632719459200,2
599617632727144960,4
599617632734830848,4
599617632742516608,2
599617632750202368,4
599617632757888256,7
599617632765574016,4
599617632773259776,4
599617632780945536,7
599617632788631424,7
599617632796317184,2
599617632804002944,0
599617632811688832,-4
599617632819374592,0
599617632827060352,21
599617632834746240,43
599617632842432000,43
599617632850117760,36
599617632857803520,26
599617632865489408,7
599617632873175168,0
599617632880860928,7
599617632888546816,7
599617632896232576,4
599617632903918336,9
599617632911604096,9
599617632919289984,4
599617632926975744,7
599617632934661504,4
599617632942347392,-53
599617632950033152,-152
599617632957718912,-108
599617632965404800,232
599617632973090560,650
599617632980776320,635
599617632988462080,116
599617632996147968,-244
599617633003833728,-164
599617633011519488,-67
599617633019205376,-48
599617633026891136,14
599617633034576896,16
599617633042262784,-21
599617633049948544,0
599617633057634304,16
599617633065320137,7
599617633073005696,12
599617633080691200,21
599617633088376704,21
599617633096062208,21
599617633103747712,29
599617633111433344,31
599617633119118848,31
599617633126804352,36
599617633134489856,38
599617633142175360,38
599617633149860864,41
599617633157546368,48
599617633165231872,55
599617633172917504,55
599617633180603008,62
599617633188288512,67
599617633195974016,70
599617633203659520,77
599617633211345024,82
599617633219030528,77
599617633226716032,72
599617633234401664,62
599617633242087168,36
599617633249772672,7
599617633257458176,-9
599617633265143680,-19
599617633272829184,-29
599617633280514688,-31
599617633288200192,-31
599617633295885696,-33
599617633303571328,-29
599617633311256832,-24
599617633318942336,-26
599617633326627840,-24
599617633334313344,-19
599617633341998848,-19
599617633349684352,-21
599617633357369856,-19
599617633365055488,-14
599617633372740992,-9
599617633380426496,-9
599617633388112000,-7
599617633395797504,-4
599617633403483008,-7
599617633411168512,-4
599617633418854016,0
599617633426539648,2
599617633434225152,0
599617633441910656,0
599617633449596160,2
599617633457281664,0
599617633464967168,-2
599617633472652672,-2
599617633480338176,-4
599617633488023680,-7
599617633495709312,-2
599617633503394816,16
599617633511080320,36
599617633518765824,38
599617633526451328,31
599617633534136832,21
599617633541822336,7
599617633549507840,-2
599617633557193472,4
599617633564878976,7
599617633572564480,2
599617633580249984,2
599617633587935488,2
599617633595620992,2
599617633603306496,7
599617633610992000,7
599617633618677632,-38
599617633626363048,-137
599617633634048512,-132
599617633641734016,152
599617633649419392,572
599617633657104896,645
599617633664790272,198
599617633672475776,-200
599617633680161152,-164
599617633687846656,-53
599617633695532160,-43
599617633703217536,-2
599617633710903040,9
599617633718588416,-19
599617633726273920,-12
599617633733959296,7
599617633741644800,4
599617633749330304,7
599617633757015680,14
599617633764701184,14
599617633772386560,14
599617633780072064,19
599617633787757568,24
599617633795442944,26
599617633803128448,31
599617633810813824,38
599617633818499328,38
599617633826184704,38
599617633833870208,41
599617633841555712,48
599617633849241088,53
599617633856926592,60
599617633864611968,62
599617633872297472,65
599617633879982848,70
599617633887668352,70
599617633895353856,70
599617633903039232,67
599617633910724736,55
599617633918410112,31
599617633926095616,12
599617633933780992,-2
599617633941466496,-7
599617633949152000,-14
599617633956837376,-21
599617633964522880,-16
599617633972208256,-16
599617633979893760,-19
599617633987579136,-21
599617633995264640,-21
599617634002950144,-21
599617634010635520,-21
599617634018321024,-19
599617634026006400,-14
599617634033691904,-12
599617634041377280,-14
599617634049062784,-12
599617634056748288,-9
599617634064433664,-4
599617634072119168,-4
599617634079804544,-4
599617634087490048,-2
599617634095175552,-4
599617634102860928,-4
599617634110546432,0
599617634118231808,0
599617634125917312,0
599617634133602688,0
599617634141288192,2
599617634148973696,0
599617634156659072,0
599617634164344576,0
599617634172029952,-2
599617634179715456,-4
599617634187400873,9
599617634195086336,31
599617634202771840,41
599617634210457216,33
599617634218142720,33
599617634225828096,26
599617634233513600,4
599617634241198976,0
599617634248884480,7
599617634256569984,4
599617634264255360,4
599617634271940864,7
599617634279626240,9
599617634287311744,9
599617634294997120,9
599617634302682624,0
599617634310368128,-65
599617634318053504,-157
599617634325739008,-79
599617634333424384,268
599617634341109888,623
599617634348795392,531
599617634356480768,50
599617634364166272,-200
599617634371851648,-103
599617634379537152,-38
599617634387222528,-38
599617634394908032,-12
599617634402593536,-14
599617634410278912,-26
599617634417964416,-12
599617634425649792,0
599617634433335296,-7
599617634441020672,-9
599617634448706176,0
599617634456391680,7
599617634464077056,4
599617634471762560,2
599617634479447936,7
599617634487133440,12
599617634494818816,16
599617634502504320,19
599617634510189824,21
599617634517875200,21
599617634525560704,26
599617634533246080,29
599617634540931584,31
599617634548616960,33
599617634556302464,36
599617634563987968,41
599617634571673344,43
599617634579358848,41
599617634587044224,38
599617634594729728,36
599617634602415104,24
599617634610100608,4
599617634617786112,-9
599617634625471488,-21
599617634633156992,-26
599617634640842368,-29
599617634648527872,-31
599617634656213376,-31
599617634663898752,-33
599617634671584256,-29
599617634679269632,-26
599617634686955136,-29
599617634694640512,-36
599617634702326016,-48
599617634710011520,-50
599617634717696896,-45
599617634725382400,-41
599617634733067776,-38
599617634740753280,-38
599617634748438698,-33
599617634756124544,-31
599617634763810432,-31
599617634771496448,-31
599617634779182336,-24
599617634786868352,-19
599617634794554240,-21
599617634802240128,-19
599617634809926144,-14
599617634817612032,-16
599617634825297920,-14
599617634832983936,-9
599617634840669824,-12
599617634848355840,-14
599617634856041728,-9
599617634863727616,-7
599617634871413632,-9
599617634879099520,-9
599617634886785536,-9
599617634894471424,-19
599617634902157312,-29
599617634909843328,-26
599617634917529216,-16
599617634925215104,0
599617634932901120,12
599617634940587008,12
599617634948273024,9
599617634955958912,0
599617634963644800,-14
599617634971330816,-19
599617634979016704,-19
599617634986702720,-16
599617634994388608,-12
599617635002074496,-14
599617635009760512,-14
599617635017446400,-9
599617635025132416,-4
599617635032818304,-16
599617635040504192,-60
599617635048190208,-137
599617635055876096,-123
599617635063561984,135
599617635071248000,488
599617635078933888,512
599617635086619904,113
599617635094305792,-190
599617635101991680,-135
599617635109677696,-50
599617635117363584,-62
599617635125049600,-41
599617635132735488,-26
599617635140421376,-48
599617635148107392,-45
599617635155793280,-26
599617635163479168,-21
599617635171165184,-26
599617635178851072,-24
599617635186537088,-14
599617635194222976,-14
599617635201908864,-14
599617635209594880,-7
599617635217280768,-2
599617635224966784,-4
599617635232652672,-2
599617635240338560,7
599617635248024576,12
599617635255710464,7
599617635263396352,7
599617635271082368,12
599617635278768256,16
599617635286454272,19
599617635294140160,21
599617635301826048,24
599617635309512129,31
599617635317197568,31
599617635324882944,26
599617635332568320,16
599617635340253696,4
599617635347939072,-9
599617635355624448,-16
599617635363309824,-29
599617635370995200,-38
599617635378680576,-36
599617635386365952,-36
599617635394051328,-41
599617635401736704,-38
599617635409422080,-33
599617635417107456,-36
599617635424792832,-38
599617635432478208,-36
599617635440163584,-33
599617635447849088,-36
599617635455534464,-36
599617635463219840,-31
599617635470905216,-29
599617635478590592,-29
599617635486275968,-26
599617635493961344,-24
599617635501646720,-24
599617635509332096,-24
599617635517017472,-24
599617635524702848,-21
599617635532388224,-24
599617635540073600,-29
599617635547758976,-24
599617635555444352,-24
599617635563129728,-31
599617635570815104,-33
599617635578500480,-31
599617635586185856,-26
599617635593871232,-24
599617635601556608,-19
599617635609241984,-21
599617635616927360,-26
599617635624612736,-24
599617635632298112,-24
599617635639983488,-19
599617635647668864,-16
599617635655354240,-21
599617635663039616,-24
599617635670724992,-16
599617635678410368,-14
599617635686095744,-21
599617635693781248,-16
599617635701466624,-9
599617635709152000,-14
599617635716837376,-14
599617635724522752,-12
599617635732208128,-9
599617635739893504,-4
599617635747578880,-4
599617635755264256,-7
599617635762949632,-7
599617635770635008,-2
599617635778320384,0
599617635786005760,-2
599617635793691136,-2
599617635801376512,-2
599617635809061888,-2
599617635816747264,-4
599617635824432640,-19
599617635832118016,-36
599617635839803392,-31
599617635847488768,-26
599617635855174144,-29
599617635862859520,-31
599617635870544866,-33
599617635878230784,-26
599617635885916672,-7
599617635893602560,0
599617635901288448,-2
599617635908974208,-4
599617635916660096,-19
599617635924345984,-26
599617635932031872,-21
599617635939717760,-19
599617635947403648,-24
599617635955089408,-19
599617635962775296,-9
599617635970461184,-14
599617635978147072,-24
599617635985832960,-14
599617635993518848,-16
599617636001204608,-74
599617636008890496,-137
599617636016576384,-41
599617636024262272,253
599617636031948160,480
599617636039634048,333
599617636047319936,-21
599617636055005696,-147
599617636062691584,-60
599617636070377472,-31
599617636078063360,-33
599617636085749248,-4
599617636093435136,-4
599617636101120896,-16
599617636108806784,-7
599617636116492672,2
599617636124178560,0
599617636131864448,2
599617636139550336,7
599617636147236096,9
599617636154921984,16
599617636162607872,19
599617636170293760,12
599617636177979648,16
599617636185665536,29
599617636193351424,24
599617636201037184,26
599617636208723072,33
599617636216408960,31
599617636224094848,24
599617636231780736,29
599617636239466624,45
599617636247152384,43
599617636254838272,36
599617636262524160,38
599617636270210048,38
599617636277895936,38
599617636285581824,41
599617636293267584,26
599617636300953472,19
599617636308639360,19
599617636316325248,9
599617636324011136,0
599617636331697024,-2
599617636339382912,-4
599617636347068672,-9
599617636354754560,-2
599617636362440448,2
599617636370126336,-7
599617636377812224,-7
599617636385498112,0
599617636393183872,2
599617636400869760,4
599617636408555648,0
599617636416241536,0
599617636423927424,14
599617636431613213,7
599617636439298688,-2
599617636446984192,4
599617636454669568,9
599617636462355072,9
599617636470040448,16
599617636477725952,16
599617636485411328,7
599617636493096832,9
599617636500782336,19
599617636508467712,16
599617636516153216,12
599617636523838592,14
599617636531524096,12
599617636539209472,7
599617636546894976,16
599617636554580480,19
599617636562265856,9
599617636569951360,9
599617636577636736,16
599617636585322240,14
599617636593007744,9
599617636600693120,16
599617636608378624,14
599617636616064000,7
599617636623749504,16
599617636631434880,16
599617636639120384,12
599617636646805888,19
599617636654491264,16
599617636662176768,14
599617636669862144,14
599617636677547648,19
599617636685233024,24
599617636692918528,19
599617636700604032,12
599617636708289408,14
599617636715974912,19
599617636723660288,16
599617636731345792,7
599617636739031168,12
599617636746716672,21
599617636754402176,9
599617636762087552,2
599617636769773056,14
599617636777458432,31
599617636785143936,38
599617636792829312,33
599617636800514816,26
599617636808200320,16
599617636815885696,4
599617636823571200,-4
599617636831256576,-12
599617636838942080,0
599617636846627456,0
599617636854312960,-31
599617636861998464,-38
599617636869683840,-24
