599618854099891584,-89
599618854107577344,-99
599618854115263232,-77
599618854122949120,-77
599618854130635008,-84
599618854138320896,-74
599618854146006784,-67
599618854153692544,-65
599618854161378432,-58
599618854169064320,-55
599618854176750208,-53
599618854184436096,-41
599618854192121984,-38
599618854199807872,-41
599618854207493632,-33
599618854215179520,-24
599618854222865408,-24
599618854230551296,-21
599618854238237184,-19
599618854245923072,-19
599618854253608832,-16
599618854261294720,-12
599618854268980608,-9
599618854276666496,-7
599618854284352384,-4
599618854292038272,-2
599618854299724032,-2
599618854307409920,0
599618854315095808,2
599618854322781696,2
599618854330467584,4
599618854338153472,12
599618854345839232,7
599618854353525120,7
599618854361211008,16
599618854368896896,16
599618854376582784,14
599618854384268672,16
599618854391954560,19
599618854399640320,16
599618854407326208,16
599618854415012096,21
599618854422697984,24
599618854430383872,21
599618854438069638,21
599618854445755520,26
599618854453441408,31
599618854461127296,29
599618854468813184,24
599618854476498944,29
599618854484184832,33
599618854491870720,33
599618854499556608,33
599618854507242496,36
599618854514928384,36
599618854522614144,33
599618854530300032,33
599618854537985920,36
599618854545671808,38
599618854553357696,41
599618854561043584,41
599618854568729344,43
599618854576415232,43
599618854584101120,41
599618854591787008,38
599618854599472896,38
599618854607158784,45
599618854614844672,72
599618854622530432,87
599618854630216320,70
599618854637902208,58
599618854645588096,58
599618854653273984,43
599618854660959872,38
599618854668645632,50
599618854676331520,48
599618854684017408,41
599618854691703296,50
599618854699389184,55
599618854707075072,48
599618854714760832,36
599618854722446720,-14
599618854730132608,-91
599618854737818496,-31
599618854745504384,282
599618854753190272,611
599618854760876160,543
599618854768561920,101
599618854776247808,-159
599618854783933696,-65
599618854791619584,9
599618854799305472,9
599618854806991360,55
599618854814677120,67
599618854822363008,38
599618854830048896,48
599618854837734784,65
599618854845420672,60
599618854853106560,55
599618854860792320,62
599618854868478208,70
599618854876164096,72
599618854883849984,72
599618854891535872,74
599618854899221760,82
599618854906907520,84
599618854914593408,84
599618854922279296,89
599618854929965184,96
599618854937651072,101
599618854945336960,106
599618854953022848,113
599618854960708608,120
599618854968394496,128
599618854976080384,135
599618854983766272,140
599618854991452160,140
599618854999137981,140
599618855006823808,137
599618855014509696,125
599618855022195584,101
599618855029881472,72
599618855037567232,45
599618855045253120,29
599618855052939008,19
599618855060624896,7
599618855068310784,0
599618855075996672,0
599618855083682432,2
599618855091368320,2
599618855099054208,4
599618855106740096,7
599618855114425984,9
599618855122111872,9
599618855129797632,14
599618855137483520,14
599618855145169408,16
599618855152855296,19
599618855160541184,16
599618855168227072,21
599618855175912960,29
599618855183598720,29
599618855191284608,29
599618855198970496,33
599618855206656384,38
599618855214342272,38
599618855222028160,38
599618855229713920,43
599618855237399808,43
599618855245085696,43
599618855252771584,43
599618855260457472,43
599618855268143360,43
599618855275829120,41
599618855283515008,41
599618855291200896,41
599618855298886784,43
599618855306572672,43
599618855314258560,43
599618855321944448,43
599618855329630208,43
599618855337316096,43
599618855345001984,45
599618855352687872,43
599618855360373760,43
599618855368059648,45
599618855375745408,48
599618855383431296,48
599618855391117184,48
599618855398803072,43
599618855406488960,45
599618855414174848,50
599618855421860608,48
599618855429546496,45
599618855437232384,48
599618855444918272,48
599618855452604160,48
599618855460290048,45
599618855467975808,45
599618855475661696,45
599618855483347584,50
599618855491033472,50
599618855498719360,50
599618855506405248,50
599618855514091136,48
599618855521776896,45
599618855529462784,50
599618855537148672,48
599618855544834560,41
599618855552520448,58
599618855560206324,84
599618855567892224,87
599618855575578112,72
599618855583264000,67
599618855590949888,58
599618855598635648,41
599618855606321536,41
599618855614007424,53
599618855621693312,50
599618855629379200,45
599618855637065088,50
599618855644750848,50
599618855652436736,48
599618855660122624,33
599618855667808512,-43
599618855675494400,-118
599618855683180288,14
599618855690866048,406
599618855698551936,739
599618855706237824,580
599618855713923712,58
599618855721609600,-181
599618855729295488,-60
599618855736981376,4
599618855744667136,9
599618855752353024,50
599618855760038912,45
599618855767724800,29
599618855775410688,43
599618855783096576,53
599618855790782336,48
599618855798468224,55
599618855806154112,62
599618855813840000,65
599618855821525888,65
599618855829211776,70
599618855836897536,72
599618855844583424,74
599618855852269312,77
599618855859955200,82
599618855867641088,89
599618855875326976,91
599618855883012864,99
599618855890698624,106
599618855898384512,116
599618855906070400,123
599618855913756288,130
599618855921442176,137
599618855929128064,145
599618855936813824,142
599618855944499712,140
599618855952185600,137
599618855959871488,125
599618855967557376,91
599618855975243264,60
599618855982929024,38
599618855990614912,19
599618855998300800,2
599618856005986688,-4
599618856013672576,-7
599618856021358464,-7
599618856029044224,-7
599618856036730112,-2
599618856044416000,-2
599618856052101888,-2
599618856059787776,2
599618856067473664,4
599618856075159552,2
599618856082845312,4
599618856090531200,9
599618856098217088,9
599618856105902976,12
599618856113588864,16
599618856121274667,21
599618856128960512,24
599618856136646400,24
599618856144332288,26
599618856152018176,31
599618856159703936,29
599618856167389824,31
599618856175075712,33
599618856182761600,33
599618856190447488,33
599618856198133376,36
599618856205819136,36
599618856213505024,36
599618856221190912,38
599618856228876800,38
599618856236562688,33
599618856244248576,33
599618856251934336,38
599618856259620224,36
599618856267306112,36
599618856274992000,43
599618856282677888,43
599618856290363776,33
599618856298049664,36
599618856305735424,43
599618856313421312,41
599618856321107200,38
599618856328793088,43
599618856336478976,45
599618856344164864,38
599618856351850624,38
599618856359536512,41
599618856367222400,43
599618856374908288,43
599618856382594176,45
599618856390280064,43
599618856397965824,41
599618856405651712,43
599618856413337600,48
599618856421023488,45
599618856428709376,43
599618856436395264,45
599618856444081152,48
599618856451766912,45
599618856459452800,43
599618856467138688,41
599618856474824576,38
599618856482510464,50
599618856490196352,74
599618856497882112,84
599618856505568000,77
599618856513253888,67
599618856520939776,58
599618856528625664,43
599618856536311552,41
599618856543997312,50
599618856551683200,48
599618856559369088,43
599618856567054976,45
599618856574740864,50
599618856582426752,48
599618856590112512,41
599618856597798400,-19
599618856605484288,-123
599618856613170176,-84
599618856620856064,265
599618856628541952,713
599618856636227840,768
599618856643913600,282
599618856651599488,-157
599618856659285376,-130
599618856666971264,-4
599618856674657152,-4
599618856682343010,24
599618856690028928,50
599618856697714816,24
599618856705400704,26
599618856713086592,48
599618856720772352,43
599618856728458240,41
599618856736144128,53
599618856743830016,55
599618856751515904,53
599618856759201792,58
599618856766887552,65
599618856774573440,67
599618856782259328,70
599618856789945216,77
599618856797631104,79
599618856805316992,87
599618856813002752,94
599618856820688640,101
599618856828374528,108
599618856836060416,116
599618856843746304,125
599618856851432192,132
599618856859118080,135
599618856866803840,142
599618856874489728,145
599618856882175616,135
599618856889861504,125
599618856897547392,103
599618856905233280,70
599618856912919040,38
599618856920604928,16
599618856928290816,4
599618856935976704,-7
599618856943662592,-12
599618856951348480,-12
599618856959034240,-12
599618856966720128,-9
599618856974406016,-4
599618856982091904,-4
599618856989777792,-4
599618856997463680,-4
599618857005149568,0
599618857012835328,2
599618857020521216,2
599618857028207104,7
599618857035892992,12
599618857043578880,9
599618857051264768,12
599618857058950528,16
599618857066636416,19
599618857074322304,24
599618857082008192,26
599618857089694080,26
599618857097379968,31
599618857105065728,33
599618857112751616,31
599618857120437504,31
599618857128123392,33
599618857135809280,33
599618857143495168,31
599618857151181056,33
599618857158866816,36
599618857166552704,33
599618857174238592,33
599618857181924480,33
599618857189610368,36
599618857197296256,38
599618857204982016,36
599618857212667904,33
599618857220353792,36
599618857228039680,41
599618857235725568,43
599618857243411357,43
599618857251097216,41
599618857258783104,43
599618857266468992,43
599618857274154880,45
599618857281840640,48
599618857289526528,45
599618857297212416,43
599618857304898304,45
599618857312584192,48
599618857320270080,43
599618857327955840,43
599618857335641728,48
599618857343327616,45
599618857351013504,45
599618857358699392,48
599618857366385280,48
599618857374071040,45
599618857381756928,48
599618857389442816,45
599618857397128704,33
599618857404814592,43
599618857412500480,72
599618857420186368,82
599618857427872128,79
599618857435558016,79
599618857443243904,70
599618857450929792,48
599618857458615680,41
599618857466301568,43
599618857473987328,43
599618857481673216,43
599618857489359104,45
599618857497044992,43
599618857504730880,43
599618857512416768,48
599618857520102528,29
599618857527788416,-58
599618857535474304,-154
599618857543160192,-26
599618857550846080,413
599618857558531968,848
599618857566217856,766
599618857573903616,186
599618857581589504,-186
599618857589275392,-96
599618857596961280,2
599618857604647168,-9
599618857612333056,19
599618857620018816,29
599618857627704704,9
599618857635390592,21
599618857643076480,36
599618857650762368,33
599618857658448256,31
599618857666134016,41
599618857673819904,43
599618857681505792,45
599618857689191680,48
599618857696877568,53
599618857704563456,60
599618857712249216,65
599618857719935104,70
599618857727620992,72
599618857735306880,77
599618857742992768,84
599618857750678656,91
599618857758364544,99
599618857766050304,108
599618857773736192,116
599618857781422080,125
599618857789107968,132
599618857796793856,135
599618857804479700,132
599618857812165760,132
599618857819851776,120
599618857827537920,91
599618857835223936,58
599618857842910080,31
599618857850596096,9
599618857858282240,-4
599618857865968256,-12
599618857873654400,-19
599618857881340416,-16
599618857889026560,-14
599618857896712576,-14
599618857904398720,-12
599618857912084736,-12
599618857919770880,-9
599618857927456896,-7
599618857935143040,-7
599618857942829056,-4
599618857950515200,0
599618857958201216,2
599618857965887232,4
599618857973573376,7
599618857981259392,9
599618857988945536,14
599618857996631552,19
599618858004317696,19
599618858012003712,21
599618858019689856,26
599618858027375872,29
599618858035062016,26
599618858042748032,26
599618858050434176,29
599618858058120192,29
599618858065806336,29
599618858073492352,31
599618858081178496,31
599618858088864512,29
599618858096550656,31
599618858104236672,31
599618858111922816,31
599618858119608832,31
599618858127294848,33
599618858134980992,33
599618858142667008,31
599618858150353152,33
599618858158039168,36
599618858165725312,38
599618858173411328,38
599618858181097472,36
599618858188783488,33
599618858196469632,33
599618858204155648,36
599618858211841792,38
599618858219527808,33
599618858227213952,33
599618858234899968,41
599618858242586112,41
599618858250272128,38
599618858257958272,41
599618858265644288,41
599618858273330304,38
599618858281016448,41
599618858288702464,43
599618858296388608,43
599618858304074624,41
599618858311760768,41
599618858319446784,41
599618858327132928,38
599618858334818944,41
599618858342505088,38
599618858350191104,38
599618858357877248,33
599618858365563304,31
599618858373249152,45
599618858380935040,72
599618858388621056,77
599618858396306944,72
599618858403992960,70
599618858411678848,55
599618858419364736,36
599618858427050752,33
599618858434736640,43
599618858442422528,41
599618858450108544,36
599618858457794432,43
599618858465480448,43
599618858473166336,38
599618858480852224,33
599618858488538240,-12
599618858496224128,-130
599618858503910144,-149
599618858511596032,164
599618858519281920,700
599618858526967936,964
599618858534653824,582
599618858542339712,-24
599618858550025728,-176
599618858557711616,-36
599618858565397632,-12
599618858573083520,-14
599618858580769408,14
599618858588455424,4
599618858596141312,0
599618858603827328,14
599618858611513216,21
599618858619199104,21
599618858626885120,26
599618858634571008,31
599618858642257024,33
599618858649942912,36
599618858657628800,38
599618858665314816,43
599618858673000704,48
599618858680686592,55
599618858688372608,58
599618858696058496,60
599618858703744512,70
599618858711430400,77
599618858719116288,82
599618858726802304,89
599618858734488192,96
599618858742174208,106
599618858749860096,113
599618858757545984,120
599618858765232000,125
599618858772917888,123
599618858780603776,116
599618858788289792,101
599618858795975680,74
599618858803661696,41
599618858811347584,16
599618858819033472,2
599618858826719488,-9
599618858834405376,-16
599618858842091392,-21
599618858849777280,-21
599618858857463168,-19
599618858865149184,-19
599618858872835072,-16
599618858880520960,-12
599618858888206976,-9
599618858895892864,-9
599618858903578880,-4
599618858911264768,-2
599618858918950656,0
599618858926636734,2
599618858934322304,4
599618858942007936,4
599618858949693440,7
599618858957379072,9
599618858965064704,12
599618858972750208,14
599618858980435840,14
599618858988121472,19
599618858995806976,19
599618859003492608,19
599618859011178240,16
599618859018863744,16
599618859026549376,19
599618859034235008,21
599618859041920512,19
599618859049606144,19
599618859057291776,21
599618859064977280,19
599618859072662912,19
599618859080348544,21
599618859088034048,21
599618859095719680,19
599618859103405312,24
599618859111090816,29
599618859118776448,26
599618859126462080,26
599618859134147584,29
599618859141833216,29
599618859149518848,29
599618859157204352,31
599618859164889984,31
599618859172575616,29
599618859180261120,31
599618859187946752,33
599618859195632384,33
599618859203317888,31
599618859211003520,31
599618859218689152,33
599618859226374656,33
599618859234060288,36
599618859241745920,36
599618859249431424,36
599618859257117056,36
599618859264802688,36
599618859272488192,36
599618859280173824,36
599618859287859456,36
599618859295544960,36
599618859303230592,38
599618859310916224,38
599618859318601728,38
599618859326287360,38
599618859333972992,36
599618859341658496,38
599618859349344128,41
599618859357029760,38
599618859364715264,36
599618859372400896,38
599618859380086528,33
599618859387772032,24
599618859395457664,24
599618859403143168,48
599618859410828800,72
599618859418514432,79
599618859426199936,70
599618859433885568,62
599618859441571200,48
599618859449256704,33
599618859456942336,33
599618859464627968,41
599618859472313472,38
599618859479999104,38
599618859487684729,41
599618859495370624,38
599618859503056512,38
599618859510742400,24
599618859518428288,-60
599618859526114048,-181
599618859533799936,-96
599618859541485824,343
599618859549171712,884
599618859556857600,983
599618859564543488,444
599618859572229248,-103
599618859579915136,-140
599618859587601024,-16
599618859595286912,-24
599618859602972800,-21
599618859610658688,-2
599618859618344448,-16
599618859626030336,-9
599618859633716224,4
599618859641402112,4
599618859649088000,9
599618859656773888,16
599618859664459776,19
599618859672145536,21
599618859679831424,29
599618859687517312,31
599618859695203200,31
599618859702889088,38
599618859710574976,45
599618859718260736,48
599618859725946624,53
599618859733632512,60
599618859741318400,67
599618859749004288,70
599618859756690176,77
599618859764375936,89
599618859772061824,96
599618859779747712,99
599618859787433600,106
599618859795119488,111
599618859802805376,111
599618859810491264,103
599618859818177024,87
599618859825862912,62
599618859833548800,33
599618859841234688,9
599618859848920576,-7
599618859856606464,-14
599618859864292224,-19
599618859871978112,-24
599618859879664000,-24
599618859887349888,-24
599618859895035776,-21
599618859902721664,-16
599618859910407424,-14
599618859918093312,-14
599618859925779200,-12
599618859933465088,-7
599618859941150976,-4
599618859948836864,-4
599618859956522624,-4
599618859964208512,0
599618859971894400,2
599618859979580288,4
599618859987266176,4
599618859994952064,7
599618860002637952,9
599618860010323712,12
599618860018009600,14
599618860025695488,16
599618860033381376,16
599618860041067264,19
599618860048753072,21
599618860056438912,21
599618860064124800,21
599618860071810688,21
599618860079496576,21
599618860087182336,19
599618860094868224,19
599618860102554112,21
599618860110240000,21
599618860117925888,19
599618860125611776,19
599618860133297536,24
599618860140983424,24
599618860148669312,21
599618860156355200,24
599618860164041088,26
599618860171726976,24
599618860179412736,26
599618860187098624,29
599618860194784512,29
599618860202470400,26
599618860210156288,29
599618860217842176,29
599618860225528064,29
599618860233213824,29
599618860240899712,29
599618860248585600,29
599618860256271488,29
599618860263957376,29
599618860271643264,31
599618860279329024,29
599618860287014912,31
599618860294700800,31
599618860302386688,29
599618860310072576,31
599618860317758464,33
599618860325444224,33
599618860333130112,36
599618860340816000,36
599618860348501888,36
599618860356187776,33
599618860363873664,36
599618860371559552,36
599618860379245312,36
599618860386931200,36
599618860394617088,36
599618860402302976,33
599618860409988864,33
599618860417674752,33
599618860425360512,24
599618860433046400,19
599618860440732288,33
599618860448418176,62
599618860456104064,79
599618860463789952,72
599618860471475712,65
599618860479161600,58
599618860486847488,41
599618860494533376,29
599618860502219264,36
599618860509905152,41
599618860517591040,36
599618860525276800,36
599618860532962688,41
599618860540648576,38
599618860548334464,33
599618860556020352,-4
599618860563706240,-125
599618860571392000,-188
599618860579077888,60
599618860586763776,613
599618860594449664,1048
599618860602135552,850
599618860609821419,188
599618860617507328,-166
599618860625193216,-89
599618860632879104,-21
599618860640564992,-33
599618860648250752,-16
599618860655936640,-16
599618860663622528,-24
599618860671308416,-12
599618860678994304,-2
599618860686680192,0
599618860694365952,7
599618860702051840,12
599618860709737728,14
599618860717423616,16
599618860725109504,21
599618860732795392,26
599618860740481152,31
599618860748167040,36
599618860755852928,41
599618860763538816,43
599618860771224704,50
599618860778910592,58
599618860786596480,62
599618860794282240,70
599618860801968128,79
599618860809654016,87
599618860817339904,91
599618860825025792,101
599618860832711680,108
599618860840397440,106
599618860848083328,101
599618860855769216,96
599618860863455104,79
599618860871140992,48
599618860878826880,21
599618860886512640,2
599618860894198528,-16
599618860901884416,-21
599618860909570304,-24
599618860917256192,-29
599618860924942080,-29
599618860932627968,-26
599618860940313728,-24
599618860947999616,-21
599618860955685504,-19
599618860963371392,-16
599618860971057280,-14
599618860978743168,-12
599618860986428928,-9
599618860994114816,-4
599618861001800704,-2
599618861009486592,-2
599618861017172480,0
599618861024858368,4
599618861032544128,7
599618861040230016,7
599618861047915904,9
599618861055601792,16
599618861063287680,19
599618861070973568,14
599618861078659328,16
599618861086345216,21
599618861094031104,19
599618861101716992,16
599618861109402880,19
599618861117088768,19
599618861124774656,19
599618861132460416,19
599618861140146304,19
599618861147832192,19
599618861155518080,21
599618861163203968,19
599618861170889762,19
599618861178575616,21
599618861186261504,21
599618861193947392,21
599618861201633280,24
599618861209319040,24
599618861217004928,21
599618861224690816,21
599618861232376704,24
599618861240062592,24
599618861247748480,24
599618861255434240,24
599618861263120128,24
599618861270806016,24
599618861278491904,24
599618861286177792,26
599618861293863680,29
599618861301549440,26
599618861309235328,26
599618861316921216,29
599618861324607104,29
599618861332292992,29
599618861339978880,31
599618861347664768,29
599618861355350528,29
599618861363036416,31
599618861370722304,31
599618861378408192,29
599618861386094080,31
599618861393779968,31
599618861401465728,29
599618861409151616,26
599618861416837504,21
599618861424523392,12
599618861432209280,21
599618861439895168,50
599618861447580928,72
599618861455266816,72
599618861462952704,62
599618861470638592,53
599618861478324480,31
599618861486010368,24
599618861493696256,31
599618861501382016,36
599618861509067904,31
599618861516753792,33
599618861524439680,36
599618861532125568,36
599618861539811456,33
599618861547497216,4
599618861555183104,-106
599618861562868992,-203
599618861570554880,-16
599618861578240768,519
599618861585926656,1027
599618861593612416,949
599618861601298304,309
599618861608984192,-152
599618861616670080,-130
599618861624355968,-33
599618861632041856,-29
599618861639727616,-16
599618861647413504,-16
599618861655099392,-24
599618861662785280,-12
599618861670471168,-2
599618861678157056,0
599618861685842944,7
599618861693528704,12
599618861701214592,14
599618861708900480,19
599618861716586368,24
599618861724272256,29
599618861731958105,33
599618861739644032,36
599618861747329920,41
599618861755015808,48
599618861762701696,53
599618861770387456,55
599618861778073344,62
599618861785759232,72
599618861793445120,82
599618861801131008,89
599618861808816896,96
599618861816502656,103
599618861824188544,108
599618861831874432,111
599618861839560320,108
599618861847246208,99
599618861854932096,77
599618861862617856,48
599618861870303744,19
599618861877989632,-2
599618861885675520,-16
599618861893361408,-29
599618861901047296,-33
599618861908733184,-36
599618861916418944,-36
599618861924104832,-33
599618861931790720,-29
599618861939476608,-26
599618861947162496,-24
599618861954848384,-21
599618861962534144,-19
599618861970220032,-14
599618861977905920,-12
599618861985591808,-12
599618861993277696,-7
599618862000963584,-2
599618862008649344,-2
599618862016335232,-2
599618862024021120,2
599618862031707008,7
599618862039392896,7
599618862047078784,12
599618862054764672,14
599618862062450432,14
599618862070136320,14
599618862077822208,16
599618862085508096,16
599618862093193984,14
599618862100879872,14
599618862108565632,16
599618862116251520,16
599618862123937408,19
599618862131623296,16
599618862139309184,16
599618862146995072,16
599618862154680832,19
599618862162366720,19
599618862170052608,19
599618862177738496,19
599618862185424384,21
599618862193110272,24
599618862200796032,21
599618862208481920,24
599618862216167808,26
599618862223853696,24
599618862231539584,26
599618862239225472,26
599618862246911360,26
599618862254597120,26
599618862262283008,29
599618862269968896,29
599618862277654784,29
599618862285340672,29
599618862293026448,29
599618862300712320,29
599618862308398208,29
599618862316084096,31
599618862323769984,29
599618862331455744,31
599618862339141632,31
599618862346827520,29
599618862354513408,31
599618862362199296,31
599618862369885184,29
599618862377570944,29
599618862385256832,31
599618862392942720,31
599618862400628608,29
599618862408314496,29
599618862416000384,26
599618862423686144,16
599618862431372032,14
599618862439057920,38
599618862446743808,70
599618862454429696,77
599618862462115584,67
599618862469801472,60
599618862477487232,45
599618862485173120,26
599618862492859008,26
599618862500544896,33
599618862508230784,31
599618862515916672,29
599618862523602432,31
599618862531288320,31
599618862538974208,29
599618862546660096,24
599618862554345984,-50
599618862562031872,-183
599618862569717632,-147
599618862577403520,265
599618862585089408,862
599618862592775296,1073
599618862600461184,587
599618862608147072,-43
599618862615832960,-183
599618862623518720,-72
599618862631204608,-45
599618862638890496,-26
599618862646576384,-12
599618862654262272,-31
599618862661948160,-26
599618862669633920,-7
599618862677319808,-4
599618862685005696,-2
599618862692691584,9
599618862700377472,12
599618862708063360,14
599618862715749120,19
599618862723435008,26
599618862731120896,29
599618862738806784,33
599618862746492672,41
599618862754178560,45
599618862761864320,50
599618862769550208,58
599618862777236096,65
599618862784921984,72
599618862792607872,79
599618862800293760,91
599618862807979648,99
599618862815665408,103
599618862823351296,108
599618862831037184,113
599618862838723072,113
599618862846408960,108
599618862854094791,94
599618862861780736,67
599618862869466624,36
599618862877152512,9
599618862884838400,-7
599618862892524160,-16
599618862900210048,-26
599618862907895936,-31
599618862915581824,-29
599618862923267712,-29
599618862930953600,-26
599618862938639360,-21
599618862946325248,-21
599618862954011136,-19
599618862961697024,-16
599618862969382912,-14
599618862977068800,-12
599618862984754560,-4
599618862992440448,-2
599618863000126336,-2
599618863007812224,2
599618863015498112,7
599618863023184000,12
599618863030869888,14
599618863038555648,14
599618863046241536,14
599618863053927424,16
599618863061613312,19
599618863069299200,19
599618863076985088,16
599618863084670848,19
599618863092356736,21
599618863100042624,21
599618863107728512,21
599618863115414400,21
599618863123100288,21
599618863130786048,21
599618863138471936,21
599618863146157824,21
599618863153843712,24
599618863161529600,24
599618863169215488,21
599618863176901376,24
599618863184587136,26
599618863192273024,26
599618863199958912,26
599618863207644800,24
599618863215330688,26
599618863223016576,31
599618863230702336,29
599618863238388224,26
599618863246074112,29
599618863253760000,29
599618863261445888,31
599618863269131776,31
599618863276817536,31
599618863284503424,29
599618863292189312,26
599618863299875200,31
599618863307561088,31
599618863315246976,29
599618863322932736,29
599618863330618624,31
599618863338304512,31
599618863345990400,31
599618863353676288,31
599618863361362176,29
599618863369048064,29
599618863376733824,26
599618863384419712,16
599618863392105600,12
599618863399791488,29
599618863407477376,62
599618863415163134,77
599618863422849024,70
599618863430534912,58
599618863438220800,45
599618863445906688,26
599618863453592448,21
599618863461278336,31
599618863468964224,33
599618863476650112,31
599618863484336000,31
599618863492021888,31
599618863499707648,31
599618863507393536,26
599618863515079424,-31
599618863522765312,-164
599618863530451200,-169
599618863538137088,193
599618863545822848,783
599618863553508736,1053
599618863561194624,626
599618863568880512,-29
599618863576566400,-217
599618863584252288,-101
599618863591938176,-55
599618863599623936,-24
599618863607309824,7
599618863614995712,-14
599618863622681600,-19
599618863630367488,4
599618863638053376,7
599618863645739136,7
599618863653425024,16
599618863661110912,21
599618863668796800,24
599618863676482688,31
599618863684168576,38
599618863691854336,38
599618863699540224,43
599618863707226112,53
599618863714912000,58
599618863722597888,62
599618863730283776,67
599618863737969664,74
599618863745655424,79
599618863753341312,89
599618863761027200,96
599618863768713088,106
599618863776398976,113
599618863784084864,118
599618863791770624,123
599618863799456512,123
599618863807142400,116
599618863814828288,99
599618863822514176,72
599618863830200064,38
599618863837885824,9
599618863845571712,-9
599618863853257600,-21
599618863860943488,-31
599618863868629376,-31
599618863876315264,-31
599618863884001152,-31
599618863891686912,-31
599618863899372800,-29
599618863907058688,-26
599618863914744576,-24
599618863922430464,-21
599618863930116352,-19
599618863937802112,-14
599618863945488000,-12
599618863953173888,-7
599618863960859776,-2
599618863968545664,0
599618863976231481,0
599618863983917312,2
599618863991603200,9
599618863999289088,12
599618864006974976,12
599618864014660736,14
599618864022346624,16
599618864030032512,16
599618864037718400,19
599618864045404288,19
599618864053090176,16
599618864060775936,16
599618864068461824,21
599618864076147712,21
599618864083833600,19
599618864091519488,21
599618864099205376,21
599618864106891136,19
599618864114577024,19
599618864122262912,24
599618864129948800,26
599618864137634688,24
599618864145320576,21
599618864153006464,24
599618864160692224,24
599618864168378112,24
599618864176064000,26
599618864183749888,26
599618864191435776,26
599618864199121664,26
599618864206807424,26
599618864214493312,29
599618864222179200,29
599618864229865088,26
599618864237550976,24
599618864245236864,21
599618864252922624,14
599618864260608512,16
599618864268294400,45
599618864275980288,72
599618864283666176,72
599618864291352064,62
599618864299037952,55
599618864306723712,38
599618864314409600,24
599618864322095488,24
599618864329781376,29
599618864337467264,29
599618864345153152,31
599618864352838912,31
599618864360524800,29
599618864368210688,31
599618864375896576,26
599618864383582464,-31
599618864391268352,-159
599618864398954112,-161
599618864406640000,198
599618864414325888,763
599618864422011776,988
599618864429697664,536
599618864437383552,-87
599618864445069312,-227
599618864452755200,-101
599618864460441088,-58
599618864468126976,-14
599618864475812864,21
599618864483498752,-4
599618864491184640,-7
599618864498870400,19
599618864506556288,16
599618864514242176,12
599618864521928064,24
599618864529613952,31
599618864537299824,33
599618864544985728,38
599618864552671616,45
599618864560357504,45
599618864568043392,48
599618864575729152,58
599618864583415040,65
599618864591100928,67
599618864598786816,72
599618864606472704,82
599618864614158592,89
599618864621844352,96
599618864629530240,111
599618864637216128,120
599618864644902016,123
599618864652587904,130
599618864660273792,137
599618864667959552,132
599618864675645440,120
599618864683331328,101
599618864691017216,70
599618864698703104,33
599618864706388992,4
599618864714074880,-14
599618864721760640,-29
599618864729446528,-33
599618864737132416,-36
599618864744818304,-33
599618864752504192,-33
599618864760190080,-33
599618864767875840,-33
599618864775561728,-29
599618864783247616,-24
599618864790933504,-26
599618864798619392,-24
599618864806305280,-16
599618864813991040,-14
599618864821676928,-12
599618864829362816,-7
599618864837048704,-2
599618864844734592,0
599618864852420480,2
599618864860106368,7
599618864867792128,12
599618864875478016,12
599618864883163904,9
599618864890849792,14
599618864898535680,16
599618864906221568,16
599618864913907328,12
599618864921593216,14
599618864929279104,16
599618864936964992,16
599618864944650880,16
599618864952336768,19
599618864960022528,19
599618864967708416,19
599618864975394304,16
599618864983080192,21
599618864990766080,24
599618864998451968,21
599618865006137728,19
599618865013823616,21
599618865021509504,21
599618865029195392,19
599618865036881280,19
599618865044567168,12
599618865052253056,14
599618865059938816,45
599618865067624704,72
599618865075310592,65
599618865082996480,58
599618865090682368,48
599618865098368167,26
599618865106053888,16
599618865113739648,21
599618865121425408,24
599618865129111040,24
599618865136796800,24
599618865144482560,26
599618865152168320,26
599618865159853952,26
599618865167539712,21
599618865175225472,-36
599618865182911232,-157
599618865190596864,-149
599618865198282624,198
599618865205968384,734
599618865213654144,918
599618865221339776,454
599618865229025536,-123
599618865236711296,-212
599618865244397056,-79
599618865252082688,-50
599618865259768448,-7
599618865267454208,29
599618865275139968,0
599618865282825600,-2
599618865290511360,21
599618865298197120,19
599618865305882880,19
599618865313568512,29
599618865321254272,31
599618865328940032,33
599618865336625792,41
599618865344311424,45
599618865351997184,48
599618865359682944,55
599618865367368704,60
599618865375054336,62
599618865382740096,70
599618865390425856,79
599618865398111616,87
599618865405797248,96
599618865413483008,103
599618865421168768,108
599618865428854528,120
599618865436540160,128
599618865444225920,135
599618865451911680,137
599618865459597440,132
599618865467283072,118
599618865474968832,94
599618865482654592,58
599618865490340352,21
599618865498025984,-4
599618865505711744,-21
599618865513397504,-29
599618865521083264,-36
599618865528768896,-38
599618865536454656,-33
599618865544140416,-33
599618865551826176,-31
599618865559511808,-29
599618865567197568,-26
599618865574883328,-26
599618865582569088,-24
599618865590254720,-21
599618865597940480,-19
599618865605626240,-16
599618865613312000,-12
599618865620997632,-9
599618865628683392,-7
599618865636369152,-2
599618865644054912,2
599618865651740544,7
599618865659426340,7
599618865667111936,7
599618865674797568,14
599618865682483072,16
599618865690168704,14
599618865697854336,12
599618865705539840,14
599618865713225472,16
599618865720911104,16
599618865728596608,19
599618865736282240,19
599618865743967872,16
599618865751653376,19
599618865759339008,19
599618865767024640,19
599618865774710144,16
599618865782395776,16
599618865790081408,16
599618865797766912,14
599618865805452544,7
599618865813138176,14
599618865820823680,43
599618865828509312,62
599618865836194944,58
599618865843880448,53
599618865851566080,45
599618865859251712,26
599618865866937216,14
599618865874622848,16
599618865882308480,21
599618865889993984,21
599618865897679616,19
599618865905365248,19
599618865913050752,21
599618865920736384,26
599618865928422016,21
599618865936107520,-16
599618865943793152,-120
599618865951478784,-174
599618865959164288,65
599618865966849920,567
599618865974535552,884
599618865982221056,582
599618865989906688,-24
599618865997592320,-222
599618866005277824,-87
599618866012963456,-43
599618866020649088,-24
599618866028334592,19
599618866036020224,2
599618866043705856,-7
599618866051391360,12
599618866059076992,14
599618866066762624,14
599618866074448128,24
599618866082133760,26
599618866089819392,24
599618866097504896,31
599618866105190528,36
599618866112876160,38
599618866120561664,43
599618866128247296,48
599618866135932800,50
599618866143618432,60
599618866151304064,70
599618866158989568,72
599618866166675200,77
599618866174360832,89
599618866182046336,99
599618866189731968,106
599618866197417600,113
599618866205103104,120
599618866212788736,125
599618866220474335,120
599618866228160256,111
599618866235846144,89
599618866243532032,53
599618866251217920,16
599618866258903680,-7
599618866266589568,-19
599618866274275456,-31
599618866281961344,-38
599618866289647232,-41
599618866297333120,-38
599618866305018880,-36
599618866312704768,-33
599618866320390656,-29
599618866328076544,-26
599618866335762432,-26
599618866343448320,-26
599618866351134080,-24
599618866358819968,-19
599618866366505856,-19
599618866374191744,-14
599618866381877632,-7
599618866389563520,-4
599618866397249408,-4
599618866404935168,0
599618866412621056,2
599618866420306944,2
599618866427992832,2
599618866435678720,7
599618866443364608,12
599618866451050368,14
599618866458736256,14
599618866466422144,19
599618866474108032,16
599618866481793920,14
599618866489479808,16
599618866497165568,16
599618866504851456,14
599618866512537344,16
599618866520223232,19
599618866527909120,19
599618866535595008,21
599618866543280896,21
599618866550966656,19
599618866558652544,19
599618866566338432,21
599618866574024320,19
599618866581710208,16
599618866589396096,14
599618866597081856,12
599618866604767744,21
599618866612453632,48
599618866620139520,62
599618866627825408,58
599618866635511296,53
599618866643197056,41
599618866650882944,21
599618866658568832,14
599618866666254720,21
599618866673940608,24
599618866681626496,21
599618866689312256,24
599618866696998144,24
599618866704684032,26
599618866712369920,24
599618866720055808,19
599618866727741696,-31
599618866735427584,-137
599618866743113344,-135
599618866750799232,186
599618866758485120,674
599618866766171008,831
599618866773856896,393
599618866781542678,-118
599618866789228544,-166
599618866796914432,-43
599618866804600320,-33
599618866812286208,-7
599618866819971968,21
599618866827657856,-4
599618866835343744,-4
599618866843029632,16
599618866850715520,16
599618866858401408,16
599618866866087168,26
599618866873773056,31
599618866881458944,31
599618866889144832,33
599618866896830720,38
599618866904516608,41
599618866912202368,45
599618866919888256,50
599618866927574144,55
599618866935260032,65
599618866942945920,72
599618866950631808,74
599618866958317696,79
599618866966003456,89
599618866973689344,99
599618866981375232,108
599618866989061120,113
599618866996747008,116
599618867004432896,120
599618867012118656,118
599618867019804544,106
599618867027490432,82
599618867035176320,50
599618867042862208,19
599618867050548096,0
599618867058233856,-14
599618867065919744,-26
599618867073605632,-26
599618867081291520,-26
599618867088977408,-29
599618867096663296,-26
599618867104349184,-19
599618867112034944,-16
599618867119720832,-16
599618867127406720,-16
599618867135092608,-14
599618867142778496,-12
599618867150464384,-9
599618867158150144,-7
599618867165836032,-7
599618867173521920,-4
599618867181207808,0
599618867188893696,2
599618867196579584,2
599618867204265344,4
599618867211951232,9
599618867219637120,14
599618867227323008,12
599618867235008896,9
599618867242694784,14
599618867250380672,16
599618867258066432,19
599618867265752320,19
599618867273438208,19
599618867281124096,21
599618867288809984,21
599618867296495872,19
599618867304181632,19
599618867311867520,21
599618867319553408,24
599618867327239296,21
599618867334925184,19
599618867342611025,19
599618867350296960,24
599618867357982848,24
599618867365668736,21
599618867373354624,26
599618867381040384,29
599618867388726272,24
599618867396412160,24
599618867404098048,26
599618867411783936,29
599618867419469824,29
599618867427155584,29
599618867434841472,26
599618867442527360,26
599618867450213248,26
599618867457899136,26
599618867465585024,29
599618867473270784,26
599618867480956672,26
599618867488642560,29
599618867496328448,29
599618867504014336,29
599618867511700224,29
599618867519386112,29
599618867527071872,29
599618867534757760,31
599618867542443648,29
599618867550129536,31
599618867557815424,33
599618867565501312,33
599618867573187072,33
599618867580872960,33
599618867588558848,31
599618867596244736,29
599618867603930624,29
599618867611616512,21
599618867619302272,31
599618867626988160,60
599618867634674048,72
599618867642359936,62
599618867650045824,55
599618867657731712,50
599618867665417600,33
599618867673103360,24
599618867680789248,29
599618867688475136,36
599618867696161024,31
599618867703846912,29
599618867711532800,29
599618867719218560,33
599618867726904448,38
599618867734590336,26
599618867742276224,-36
599618867749962112,-135
599618867757648000,-103
599618867765333760,239
599618867773019648,705
599618867780705536,785
599618867788391424,316
599618867796077312,-123
599618867803763200,-123
599618867811448960,-21
599618867819134848,-26
599618867826820736,-4
599618867834506624,19
599618867842192512,-2
599618867849878400,2
599618867857564288,19
599618867865250048,14
599618867872935936,16
599618867880621824,26
599618867888307712,29
599618867895993600,31
599618867903679368,33
599618867911365248,33
599618867919051136,36
599618867926737024,43
599618867934422912,45
599618867942108672,48
599618867949794560,53
599618867957480448,58
599618867965166336,60
599618867972852224,70
599618867980538112,77
599618867988223872,79
599618867995909760,89
599618868003595648,96
599618868011281536,99
599618868018967424,101
599618868026653312,101
599618868034339072,96
599618868042024960,84
599618868049710848,62
599618868057396736,38
599618868065082624,14
599618868072768512,0
599618868080454400,-7
599618868088140160,-16
599618868095826048,-21
599618868103511936,-16
599618868111197824,-14
599618868118883712,-19
599618868126569600,-14
599618868134255360,-9
599618868141941248,-12
599618868149627136,-9
599618868157313024,-4
599618868164998912,-2
599618868172684800,0
599618868180370560,0
599618868188056448,0
599618868195742336,2
599618868203428224,7
599618868211114112,7
599618868218800000,9
599618868226485888,12
599618868234171648,14
599618868241857536,12
599618868249543424,14
599618868257229312,21
599618868264915200,19
599618868272601088,16
599618868280286848,19
599618868287972736,24
599618868295658624,24
599618868303344512,21
599618868311030400,26
599618868318716288,24
599618868326402048,19
599618868334087936,24
599618868341773824,29
599618868349459712,26
599618868357145600,26
599618868364831488,24
599618868372517248,21
599618868380203136,24
599618868387889024,29
599618868395574912,31
599618868403260800,29
599618868410946688,26
599618868418632576,26
599618868426318336,26
599618868434004224,26
599618868441690112,26
599618868449376000,31
599618868457061888,31
599618868464747711,29
599618868472433536,31
599618868480119424,31
599618868487805312,29
599618868495491200,29
599618868503176960,31
599618868510862848,31
599618868518548736,29
599618868526234624,31
599618868533920512,33
599618868541606400,29
599618868549292160,29
599618868556978048,33
599618868564663936,33
599618868572349824,31
599618868580035712,36
599618868587721600,33
599618868595407360,19
599618868603093248,21
599618868610779136,43
599618868618465024,65
599618868626150912,67
599618868633836800,58
599618868641522688,50
599618868649208448,38
599618868656894336,26
599618868664580224,26
599618868672266112,29
599618868679952000,31
599618868687637888,31
599618868695323648,31
599618868703009536,29
599618868710695424,29
599618868718381312,33
599618868726067200,2
599618868733753088,-91
599618868741438848,-147
599618868749124736,50
599618868756810624,495
599618868764496512,787
599618868772182400,531
599618868779868288,12
599618868787554176,-159
599618868795239936,-45
599618868802925824,-16
599618868810611712,-19
599618868818297600,14
599618868825983488,9
599618868833669376,-4
599618868841355136,9
599618868849041024,16
599618868856726912,14
599618868864412800,24
599618868872098688,29
599618868879784576,29
599618868887470336,31
599618868895156224,36
599618868902842112,33
599618868910528000,33
599618868918213888,43
599618868925899776,48
599618868933585536,48
599618868941271424,53
599618868948957312,62
599618868956643200,67
599618868964329088,72
599618868972014976,77
599618868979700864,84
599618868987386624,94
599618868995072512,99
599618869002758400,101
599618869010444288,101
599618869018130176,99
599618869025816054,89
599618869033501952,67
599618869041187840,36
599618869048873728,14
599618869056559616,0
599618869064245376,-12
599618869071931264,-19
599618869079617152,-24
599618869087303040,-26
599618869094988928,-24
599618869102674816,-21
599618869110360576,-19
599618869118046464,-19
599618869125732352,-16
599618869133418240,-12
599618869141104128,-9
599618869148790016,-12
599618869156475776,-14
599618869164161664,-7
599618869171847552,-2
599618869179533440,-7
599618869187219328,-2
599618869194905216,4
599618869202591104,4
599618869210276864,2
599618869217962752,7
599618869225648640,9
599618869233334528,12
599618869241020416,14
599618869248706304,14
599618869256392064,14
599618869264077952,21
599618869271763840,21
599618869279449728,16
599618869287135616,16
599618869294821504,21
599618869302507264,24
599618869310193152,21
599618869317879040,24
599618869325564928,24
599618869333250816,21
599618869340936704,21
599618869348622592,26
599618869356308352,29
599618869363994240,29
599618869371680128,24
599618869379366016,26
599618869387051904,26
599618869394737792,24
599618869402423552,26
599618869410109440,31
599618869417795328,31
599618869425481216,29
599618869433167104,29
599618869440852992,29
599618869448538752,31
599618869456224640,29
599618869463910528,24
599618869471596416,29
599618869479282304,33
599618869486968192,31
599618869494653952,29
599618869502339840,31
599618869510025728,33
599618869517711616,29
599618869525397504,31
599618869533083392,36
599618869540769280,36
599618869548455040,36
599618869556140928,31
599618869563826816,29
599618869571512704,33
599618869579198592,31
599618869586884397,31
599618869594570240,33
599618869602256128,31
599618869609942016,29
599618869617627904,33
599618869625313664,29
599618869632999552,24
599618869640685440,41
599618869648371328,65
599618869656057216,67
599618869663743104,55
599618869671428864,53
599618869679114752,43
599618869686800640,24
599618869694486528,24
599618869702172416,36
599618869709858304,31
599618869717544064,29
599618869725229952,36
599618869732915840,33
599618869740601728,31
599618869748287616,29
599618869755973504,-2
599618869763659392,-96
599618869771345152,-120
599618869779031040,130
599618869786716928,558
599618869794402816,725
599618869802088704,379
599618869809774592,-62
599618869817460352,-128
599618869825146240,-21
599618869832832128,-14
599618869840518016,-7
599618869848203904,21
599618869855889792,9
599618869863575552,7
599618869871261440,21
599618869878947328,21
599618869886633216,19
599618869894319104,24
599618869902004992,29
599618869909690880,31
599618869917376640,31
599618869925062528,33
599618869932748416,41
599618869940434304,45
599618869948120192,43
599618869955806080,45
599618869963491840,53
599618869971177728,55
599618869978863616,60
599618869986549504,67
599618869994235392,74
599618870001921280,82
599618870009607040,84
599618870017292928,91
599618870024978816,96
599618870032664704,101
599618870040350592,99
599618870048036480,96
599618870055722368,87
599618870063408128,70
599618870071094016,38
599618870078779904,12
599618870086465792,2
599618870094151680,-4
599618870101837568,-16
599618870109523328,-21
599618870117209216,-19
599618870124895104,-19
599618870132580992,-19
599618870140266880,-16
599618870147952744,-12
599618870155638272,-9
599618870163323776,-12
599618870171009152,-9
599618870178694656,-7
599618870186380032,-4
599618870194065536,-2
599618870201750912,0
599618870209436416,2
599618870217121920,2
599618870224807296,0
599618870232492800,7
599618870240178176,12
599618870247863680,7
599618870255549056,12
599618870263234560,16
599618870270920064,14
599618870278605440,14
599618870286290944,19
599618870293976320,19
599618870301661824,21
599618870309347328,24
599618870317032704,19
599618870324718208,19
599618870332403584,26
599618870340089088,26
599618870347774464,21
599618870355459968,24
599618870363145472,26
599618870370830848,24
599618870378516352,26
599618870386201728,26
599618870393887232,24
599618870401572608,24
599618870409258112,21
599618870416943616,26
599618870424628992,31
599618870432314496,29
599618870439999872,24
599618870447685376,26
599618870455370752,29
599618870463056256,24
599618870470741760,24
599618870478427136,29
599618870486112640,31
599618870493798016,31
599618870501483520,26
599618870509168896,29
599618870516854400,33
599618870524539904,33
599618870532225280,31
599618870539910784,31
599618870547596160,31
599618870555281664,33
599618870562967040,31
599618870570652544,29
599618870578338048,31
599618870586023424,33
599618870593708928,31
599618870601394304,33
599618870609079808,31
599618870616765312,26
599618870624450688,31
599618870632136192,36
599618870639821568,31
599618870647507072,31
599618870655192448,26
599618870662877952,21
599618870670563456,41
599618870678248832,65
599618870685934336,67
599618870693619712,60
599618870701305216,55
599618870708990569,38
599618870716676480,24
599618870724362368,26
599618870732048256,31
599618870739734144,31
599618870747419904,33
599618870755105792,29
599618870762791680,26
599618870770477568,33
599618870778163456,36
599618870785849344,2
599618870793535104,-79
599618870801220992,-118
599618870808906880,60
599618870816592768,444
599618870824278656,671
599618870831964544,413
599618870839650304,-26
599618870847336192,-137
599618870855022080,-26
599618870862707968,-7
599618870870393856,-7
599618870878079744,26
599618870885765632,19
599618870893451392,9
599618870901137280,21
599618870908823168,21
599618870916509056,19
599618870924194944,31
599618870931880832,38
599618870939566592,31
599618870947252480,33
599618870954938368,45
599618870962624256,43
599618870970310144,38
599618870977996032,45
599618870985681792,48
599618870993367680,53
599618871001053568,60
599618871008739456,60
599618871016425344,65
599618871024111232,74
599618871031797120,79
599618871039482880,84
599618871047168768,91
599618871054854656,96
599618871062540544,99
599618871070226432,103
599618871077912320,101
599618871085598080,87
599618871093283968,72
599618871100969856,50
599618871108655744,21
599618871116341632,2
599618871124027520,0
599618871131713280,-4
599618871139399168,-16
599618871147085056,-14
599618871154770944,-12
599618871162456832,-12
599618871170142720,-14
599618871177828480,-12
599618871185514368,-9
599618871193200256,-4
599618871200886144,-2
599618871208572032,-2
599618871216257920,-7
599618871223943808,-2
599618871231629568,7
599618871239315456,4
599618871247001344,-2
599618871254687232,4
599618871262373120,12
599618871270058912,9
599618871277744768,14
599618871285430656,16
599618871293116544,14
599618871300802432,14
599618871308488192,16
599618871316174080,24
599618871323859968,26
599618871331545856,24
599618871339231744,24
599618871346917632,21
599618871354603392,24
599618871362289280,29
599618871369975168,29
599618871377661056,24
599618871385346944,21
599618871393032832,24
599618871400718592,24
599618871408404480,26
599618871416090368,29
599618871423776256,26
599618871431462144,24
599618871439148032,26
599618871446833920,31
599618871454519680,31
599618871462205568,26
599618871469891456,24
599618871477577344,26
599618871485263232,29
599618871492949120,31
599618871500634880,31
599618871508320768,31
599618871516006656,26
599618871523692544,24
599618871531378432,31
599618871539064320,33
599618871546750080,31
599618871554435968,31
599618871562121856,31
599618871569807744,31
599618871577493632,33
599618871585179520,31
599618871592865408,31
599618871600551168,33
599618871608237056,31
599618871615922944,29
599618871623608832,31
599618871631294720,36
599618871638980608,36
599618871646666368,33
599618871654352256,33
599618871662038144,33
599618871669724032,33
599618871677409920,31
599618871685095808,36
599618871692781568,36
599618871700467456,31
599618871708153344,31
599618871715839232,36
599618871723525120,33
599618871731211008,26
599618871738896768,29
599618871746582656,43
599618871754268544,53
599618871761954432,62
599618871769640320,65
599618871777326208,53
599618871785012096,38
599618871792697856,29
599618871800383744,29
599618871808069632,31
599618871815755520,29
599618871823441408,31
599618871831127255,31
599618871838813184,31
599618871846499072,33
599618871854184960,29
599618871861870848,-2
599618871869556608,-82
599618871877242496,-111
599618871884928384,99
599618871892614272,476
599618871900300160,640
599618871907986048,335
599618871915671808,-67
599618871923357696,-123
599618871931043584,-14
599618871938729472,-7
599618871946415360,-4
599618871954101248,24
599618871961787008,16
599618871969472896,7
599618871977158784,21
599618871984844672,24
599618871992530560,21
599618872000216448,29
599618872007902336,33
599618872015588096,31
599618872023273984,36
599618872030959872,41
599618872038645760,38
599618872046331648,41
599618872054017536,45
599618872061703296,50
599618872069389184,53
599618872077075072,55
599618872084760960,60
599618872092446848,62
599618872100132736,67
599618872107818496,74
599618872115504384,74
599618872123190272,84
599618872130876160,94
599618872138562048,89
599618872146247936,89
599618872153933824,94
599618872161619584,79
599618872169305472,62
599618872176991360,43
599618872184677248,21
599618872192363136,4
599618872200049024,-7
599618872207734784,-12
599618872215420672,-16
599618872223106560,-19
599618872230792448,-12
599618872238478336,-14
599618872246164224,-19
599618872253849984,-12
599618872261535872,-7
599618872269221760,-12
599618872276907648,-7
599618872284593536,-7
599618872292279424,-7
599618872299965184,-4
599618872307651072,-2
599618872315336960,0
599618872323022848,4
599618872330708736,2
599618872338394624,2
599618872346080512,9
599618872353766272,7
599618872361452160,9
599618872369138048,19
599618872376823936,12
599618872384509824,4
599618872392195598,16
599618872399881472,24
599618872407567360,16
599618872415253248,16
599618872422939136,21
599618872430624896,24
599618872438310784,21
599618872445996672,24
599618872453682560,26
599618872461368448,19
599618872469054336,19
599618872476740096,26
599618872484425984,24
599618872492111872,21
599618872499797760,26
599618872507483648,31
599618872515169536,26
599618872522855296,21
599618872530541184,21
599618872538227072,26
599618872545912960,29
599618872553598848,26
599618872561284736,29
599618872568970624,31
599618872576656384,31
599618872584342272,31
599618872592028160,29
599618872599714048,29
599618872607399936,29
599618872615085824,33
599618872622771584,31
599618872630457472,29
599618872638143360,31
599618872645829248,33
599618872653515136,26
599618872661201024,29
599618872668886784,38
599618872676572672,33
599618872684258560,29
599618872691944448,33
599618872699630336,36
599618872707316224,31
599618872715002112,29
599618872722687872,33
599618872730373760,38
599618872738059648,38
599618872745745536,33
599618872753431424,33
599618872761117312,33
599618872768803072,33
599618872776488960,36
599618872784174848,33
599618872791860736,26
599618872799546624,29
599618872807232512,45
599618872814918272,67
599618872822604160,67
599618872830290048,58
599618872837975936,45
599618872845661824,36
599618872853347712,29
599618872861033472,33
599618872868719360,36
599618872876405248,31
599618872884091136,33
599618872891777024,36
599618872899462912,29
599618872907148800,31
599618872914834560,31
599618872922520448,-9
599618872930206336,-89
599618872937892224,-77
599618872945578112,169
599618872953263941,509
599618872960949888,563
599618872968635776,217
599618872976321664,-96
599618872984007552,-87
599618872991693312,-9
599618872999379200,-4
599618873007065088,19
599618873014750976,31
599618873022436864,12
599618873030122752,19
599618873037808512,33
599618873045494400,31
599618873053180288,29
599618873060866176,36
599618873068552064,36
599618873076237952,38
599618873083923712,43
599618873091609600,43
599618873099295488,43
599618873106981376,50
599618873114667264,50
599618873122353152,50
599618873130039040,62
599618873137724800,65
599618873145410688,60
599618873153096576,72
599618873160782464,79
599618873168468352,74
599618873176154240,82
599618873183840000,99
599618873191525888,99
599618873199211776,96
599618873206897664,101
599618873214583552,99
599618873222269440,84
599618873229955200,67
599618873237641088,45
599618873245326976,26
599618873253012864,12
599618873260698752,0
599618873268384640,-7
599618873276070528,-9
599618873283756288,-7
599618873291442176,0
599618873299128064,-4
599618873306813952,-9
599618873314499840,0
599618873322185728,2
599618873329871488,-4
599618873337557376,2
599618873345243264,7
599618873352929152,4
599618873360615040,7
599618873368300928,7
599618873375986688,7
599618873383672576,9
599618873391358464,14
599618873399044352,16
599618873406730240,19
599618873414416128,21
599618873422102016,19
599618873429787776,21
599618873437473664,26
599618873445159552,29
599618873452845440,31
599618873460531328,26
599618873468217216,26
599618873475902976,31
599618873483588864,31
599618873491274752,26
599618873498960640,29
599618873506646528,31
599618873514332288,26
599618873522017792,24
599618873529703296,29
599618873537388672,31
599618873545074176,31
599618873552759552,31
599618873560445056,33
599618873568130432,31
599618873575815936,31
599618873583501440,36
599618873591186816,33
599618873598872320,31
599618873606557696,31
599618873614243200,33
599618873621928576,38
599618873629614080,36
599618873637299584,29
599618873644984960,36
599618873652670464,38
599618873660355840,31
599618873668041344,36
599618873675726848,43
599618873683412224,31
599618873691097728,33
599618873698783104,43
599618873706468608,38
599618873714153984,31
599618873721839488,36
599618873729524992,41
599618873737210368,41
599618873744895872,36
599618873752581248,33
599618873760266752,38
599618873767952128,38
599618873775637632,38
599618873783323136,38
599618873791008512,38
599618873798694016,36
599618873806379392,38
599618873814064896,41
599618873821750272,36
599618873829435776,33
599618873837121280,36
599618873844806656,41
599618873852492160,41
599618873860177536,36
599618873867863040,41
599618873875548416,45
599618873883233920,38
599618873890919424,33
599618873898604800,43
599618873906290304,41
599618873913975680,33
599618873921661184,36
599618873929346560,33
599618873937032064,26
599618873944717568,43
599618873952402944,67
599618873960088448,70
599618873967773824,62
599618873975459328,60
599618873983144832,48
599618873990830208,29
599618873998515712,29
599618874006201088,36
599618874013886592,33
599618874021571968,33
599618874029257472,36
599618874036942976,38
599618874044628352,36
599618874052313856,33
599618874059999232,2
599618874067684736,-82
599618874075370113,-99
599618874083056000,120
599618874090741888,493
599618874098427776,623
599618874106113664,299
599618874113799424,-89
599618874121485312,-128
599618874129171200,-21
599618874136857088,-4
599618874144542976,14
599618874152228864,38
599618874159914624,21
599618874167600512,16
599618874175286400,33
599618874182972288,36
599618874190658176,33
599618874198344064,38
599618874206029824,41
599618874213715712,41
599618874221401600,45
599618874229087488,48
599618874236773376,48
599618874244459264,50
599618874252145152,55
599618874259830912,62
599618874267516800,65
599618874275202688,62
599618874282888576,70
599618874290574464,77
599618874298260352,84
599618874305946112,89
599618874313632000,96
599618874321317888,103
599618874329003776,111
599618874336689664,116
599618874344375552,113
599618874352061312,111
599618874359747200,103
599618874367433088,84
599618874375118976,60
599618874382804864,36
599618874390490752,16
599618874398176640,2
599618874405862400,-7
599618874413548288,-12
599618874421234176,-14
599618874428920064,-16
599618874436605952,-14
599618874444291840,-9
599618874451977600,-9
599618874459663488,-12
599618874467349376,-9
599618874475035264,-4
599618874482721152,-4
599618874490407040,-4
599618874498092800,0
599618874505778688,4
599618874513464576,0
599618874521150464,0
599618874528836352,7
599618874536522240,9
599618874544208000,14
599618874551893888,16
599618874559579776,14
599618874567265664,16
599618874574951552,19
599618874582637440,19
599618874590323328,24
599618874598009088,26
599618874605694976,24
599618874613380864,24
599618874621066752,26
599618874628752640,24
599618874636438456,26
599618874644124288,26
599618874651810176,26
599618874659496064,26
599618874667181952,29
599618874674867712,21
599618874682553600,24
599618874690239488,31
599618874697925376,26
599618874705611264,24
599618874713297152,29
599618874720982912,31
599618874728668800,31
599618874736354688,29
599618874744040576,29
599618874751726464,29
599618874759412352,29
599618874767098112,33
599618874774784000,33
599618874782469888,26
599618874790155776,29
599618874797841664,31
599618874805527552,33
599618874813213440,31
599618874820899200,29
599618874828585088,31
599618874836270976,33
599618874843956864,33
599618874851642752,33
599618874859328640,33
599618874867014400,33
599618874874700288,33
599618874882386176,36
599618874890072064,33
599618874897757952,36
599618874905443840,38
599618874913129600,38
599618874920815488,33
599618874928501376,33
599618874936187264,38
599618874943873152,36
599618874951559040,36
599618874959244928,36
599618874966930688,33
599618874974616576,33
599618874982302464,38
599618874989988352,38
599618874997674240,31
599618875005360128,33
599618875013045888,38
599618875020731776,36
599618875028417664,29
599618875036103552,31
599618875043789440,50
599618875051475328,65
599618875059161088,67
599618875066846976,62
599618875074532864,55
599618875082218752,41
599618875089904640,31
599618875097590528,31
599618875105276288,33
599618875112962176,33
599618875120648064,33
599618875128333952,33
599618875136019840,33
599618875143705728,31
599618875151391616,26
599618875159077376,-21
599618875166763264,-111
599618875174449152,-87
599618875182135040,203
599618875189820928,592
599618875197506799,642
599618875205192704,224
599618875212878592,-149
599618875220564480,-125
599618875228250368,-19
599618875235936128,-16
599618875243622016,12
599618875251307904,38
599618875258993792,14
599618875266679680,14
599618875274365568,31
599618875282051328,33
599618875289737216,31
599618875297423104,38
599618875305108992,41
599618875312794880,43
599618875320480768,45
599618875328166528,48
599618875335852416,50
599618875343538304,55
599618875351224192,60
599618875358910080,58
599618875366595968,62
599618875374281856,70
599618875381967616,74
599618875389653504,82
599618875397339392,89
599618875405025280,96
599618875412711168,101
599618875420397056,111
599618875428082816,118
599618875435768704,120
599618875443454592,120
599618875451140480,120
599618875458826368,108
599618875466512256,87
599618875474198016,60
599618875481883904,33
599618875489569792,9
599618875497255680,-2
599618875504941568,-9
599618875512627456,-19
599618875520313344,-21
599618875527999104,-21
599618875535684992,-19
599618875543370880,-14
599618875551056768,-16
599618875558742656,-16
599618875566428544,-12
599618875574114304,-9
599618875581800192,-9
599618875589486080,-9
599618875597171968,-7
599618875604857856,-2
599618875612543744,-2
599618875620229504,2
599618875627915392,4
599618875635601280,9
599618875643287168,12
599618875650973056,12
599618875658658944,12
599618875666344704,16
599618875674030592,19
599618875681716480,19
599618875689402368,19
599618875697088256,21
599618875704774144,21
599618875712460032,16
599618875720145792,19
599618875727831680,24
599618875735517568,21
599618875743203456,21
599618875750889344,24
599618875758575142,21
599618875766260992,21
599618875773946880,24
599618875781632768,24
599618875789318656,24
599618875797004416,24
599618875804690304,24
599618875812376192,29
599618875820062080,31
599618875827747968,24
599618875835433856,24
599618875843119616,29
599618875850805504,31
599618875858491392,26
599618875866177280,26
599618875873863168,31
599618875881549056,29
599618875889234816,29
599618875896920704,31
599618875904606592,29
599618875912292480,29
599618875919978368,33
599618875927664256,33
599618875935350144,31
599618875943035904,31
599618875950721792,31
599618875958407680,29
599618875966093568,31
599618875973779456,33
599618875981465344,33
599618875989151104,33
599618875996836992,31
599618876004522880,31
599618876012208768,33
599618876019894656,33
599618876027580544,33
599618876035266304,33
599618876042952192,36
599618876050638080,38
599618876058323968,33
599618876066009856,33
599618876073695744,36
599618876081381632,31
599618876089067392,21
599618876096753280,31
599618876104439168,55
599618876112125056,67
599618876119810944,67
599618876127496832,60
599618876135182592,53
599618876142868480,36
599618876150554368,24
599618876158240256,29
599618876165926144,36
599618876173612032,33
599618876181297792,29
599618876188983680,33
599618876196669568,38
599618876204355456,33
599618876212041344,12
599618876219727232,-65
599618876227412992,-145
599618876235098880,-19
599618876242784768,389
599618876250470656,756
599618876258156544,626
599618876265842432,96
599618876273528320,-190
599618876281214080,-84
599618876288899968,-9
599618876296585856,-19
599618876304271744,14
599618876311957632,21
599618876319643485,0
599618876327329408,12
599618876335015296,24
599618876342701184,21
599618876350387072,24
599618876358072832,29
599618876365758720,31
599618876373444608,31
599618876381130496,38
599618876388816384,43
599618876396502272,41
599618876404188032,45
599618876411873920,55
599618876419559808,58
599618876427245696,53
599618876434931584,58
599618876442617472,70
599618876450303232,77
599618876457989120,82
599618876465675008,89
599618876473360896,96
599618876481046784,106
599618876488732672,111
599618876496418560,113
599618876504104320,116
599618876511790208,113
599618876519476096,99
599618876527161984,74
599618876534847872,45
599618876542533760,19
599618876550219520,0
599618876557905408,-14
599618876565591296,-24
599618876573277184,-24
599618876580963072,-24
599618876588648960,-26
599618876596334720,-24
599618876604020608,-19
599618876611706496,-19
599618876619392384,-21
599618876627078272,-16
599618876634764160,-9
599618876642450048,-12
599618876650135808,-12
599618876657821696,-7
599618876665507584,-7
599618876673193472,-2
599618876680879360,0
599618876688565248,4
599618876696251008,7
599618876703936896,9
599618876711622784,9
599618876719308672,9
599618876726994560,14
599618876734680448,16
599618876742366208,14
599618876750052096,14
599618876757737984,16
599618876765423872,16
599618876773109760,19
599618876780795648,19
599618876788481408,21
599618876796167296,21
599618876803853184,19
599618876811539072,16
599618876819224960,19
599618876826910848,21
599618876834596736,21
599618876842282496,19
599618876849968384,21
599618876857654272,21
599618876865340160,21
599618876873026048,21
599618876880711828,24
599618876888397696,26
599618876896083584,24
599618876903769472,26
599618876911455360,26
599618876919141120,24
599618876926827008,26
599618876934512896,29
599618876942198784,26
599618876949884672,26
599618876957570560,29
599618876965256320,29
599618876972942208,26
599618876980628096,26
599618876988313984,29
599618876995999872,29
599618877003685760,29
599618877011371520,31
599618877019057408,31
599618877026743296,26
599618877034429184,26
599618877042115072,31
599618877049800960,33
599618877057486848,29
599618877065172608,31
599618877072858496,33
599618877080544384,29
599618877088230272,29
599618877095916160,33
599618877103602048,33
599618877111287808,29
599618877118973696,31
599618877126659584,33
599618877134345472,31
599618877142031360,31
599618877149717248,26
599618877157403008,21
599618877165088896,29
599618877172774784,50
599618877180460672,67
599618877188146560,65
599618877195832448,60
599618877203518336,48
599618877211204096,31
599618877218889984,24
599618877226575872,29
599618877234261760,33
599618877241947648,31
599618877249633536,29
599618877257319296,31
599618877265005184,33
599618877272691072,31
599618877280376960,-7
599618877288062848,-103
599618877295748736,-154
599618877303434496,65
599618877311120384,538
599618877318806272,853
599618877326492160,594
599618877334178048,19
599618877341863936,-188
599618877349549824,-50
599618877357235584,-9
599618877364921472,-26
599618877372607360,9
599618877380293248,9
599618877387979136,-9
599618877395665024,4
599618877403350784,14
599618877411036672,12
599618877418722560,16
599618877426408448,24
599618877434094336,24
599618877441780175,26
599618877449466112,33
599618877457152000,33
599618877464837888,36
599618877472523776,43
599618877480209536,50
599618877487895424,50
599618877495581312,55
599618877503267200,62
599618877510953088,67
599618877518638976,72
599618877526324736,82
599618877534010624,89
599618877541696512,96
599618877549382400,103
599618877557068288,108
599618877564754176,113
599618877572439936,116
599618877580125824,108
599618877587811712,96
599618877595497600,72
599618877603183488,43
599618877610869376,19
599618877618555264,4
599618877626241024,-7
599618877633926912,-19
599618877641612800,-19
599618877649298688,-19
599618877656984576,-24
599618877664670464,-21
599618877672356224,-16
599618877680042112,-14
599618877687728000,-14
599618877695413888,-12
599618877703099776,-9
599618877710785664,-7
599618877718471424,-7
599618877726157312,-4
599618877733843200,0
599618877741529088,2
599618877749214976,2
599618877756900864,4
599618877764586752,7
599618877772272512,7
599618877779958400,9
599618877787644288,14
599618877795330176,16
599618877803016064,14
599618877810701952,16
599618877818387712,16
599618877826073600,19
599618877833759488,19
599618877841445376,19
599618877849131264,19
599618877856817152,19
599618877864502912,16
599618877872188800,16
599618877879874688,21
599618877887560576,21
599618877895246464,21
599618877902932352,21
599618877910618112,21
599618877918304000,21
599618877925989888,21
599618877933675776,24
599618877941361664,24
599618877949047552,24
599618877956733440,24
599618877964419200,24
599618877972105088,24
599618877979790976,24
599618877987476864,26
599618877995162752,26
599618878002848518,26
599618878010534400,26
599618878018220288,26
599618878025906176,26
599618878033592064,26
599618878041277824,26
599618878048963712,26
599618878056649600,26
599618878064335488,26
599618878072021376,26
599618878079707264,26
599618878087393024,29
599618878095078912,31
599618878102764800,29
599618878110450688,29
599618878118136576,31
599618878125822464,29
599618878133508224,29
599618878141194112,33
599618878148880000,31
599618878156565888,29
599618878164251776,29
599618878171937664,31
599618878179623552,31
599618878187309312,31
599618878194995200,33
599618878202681088,33
599618878210366976,31
599618878218052864,31
599618878225738752,31
599618878233424512,24
599618878241110400,21
599618878248796288,41
599618878256482176,62
599618878264168064,67
599618878271853952,62
599618878279539712,55
599618878287225600,41
599618878294911488,24
599618878302597376,24
599618878310283264,33
599618878317969152,29
599618878325655040,26
599618878333340800,31
599618878341026688,33
599618878348712576,31
599618878356398464,16
599618878364084352,-45
599618878371770240,-161
599618878379456000,-123
599618878387141888,251
599618878394827776,768
599618878402513664,911
599618878410199552,439
599618878417885440,-99
599618878425571200,-149
599618878433257088,-14
599618878440942976,-24
599618878448628864,-29
599618878456314752,-2
599618878464000640,-16
599618878471686400,-16
599618878479372288,0
599618878487058176,2
599618878494744064,2
599618878502429952,12
599618878510115840,14
599618878517801728,14
599618878525487488,19
599618878533173376,21
599618878540859264,24
599618878548545152,31
599618878556231040,36
599618878563916861,36
599618878571602688,38
599618878579288576,45
599618878586974464,50
599618878594660352,53
599618878602346112,62
599618878610032000,70
599618878617717888,74
599618878625403776,82
599618878633089664,91
599618878640775552,99
599618878648461312,101
599618878656147200,101
599618878663833088,96
599618878671518976,82
599618878679204864,58
599618878686890752,31
599618878694576512,12
599618878702262400,-2
599618878709948288,-14
599618878717634176,-21
599618878725320064,-26
599618878733005952,-29
599618878740691840,-24
599618878748377600,-24
599618878756063488,-21
599618878763749376,-19
599618878771435264,-16
599618878779121152,-12
599618878786807040,-12
599618878794492800,-9
599618878802178688,-7
599618878809864576,-4
599618878817550464,-2
599618878825236352,-2
599618878832922240,-2
599618878840608000,0
599618878848293888,4
599618878855979776,7
599618878863665664,7
599618878871351552,7
599618878879037440,9
599618878886723328,12
599618878894409088,12
599618878902094976,12
599618878909780864,12
599618878917466752,14
599618878925152640,16
599618878932838528,16
599618878940524288,14
599618878948210176,14
599618878955896064,14
599618878963581952,19
599618878971267840,19
599618878978953728,14
599618878986639488,16
599618878994325376,19
599618879002011264,19
599618879009697152,19
599618879017383040,21
599618879025068928,19
599618879032754688,16
599618879040440576,19
599618879048126464,24
599618879055812352,21
599618879063498240,21
599618879071184128,24
599618879078870016,24
599618879086555776,24
599618879094241664,26
599618879101927552,26
599618879109613440,26
599618879117299328,26
599618879124985204,29
599618879132670720,26
599618879140356224,24
599618879148041600,29
599618879155727104,31
599618879163412480,26
599618879171097984,26
599618879178783360,29
599618879186468864,29
599618879194154368,26
599618879201839744,29
599618879209525248,29
599618879217210624,29
599618879224896128,31
599618879232581504,31
599618879240267008,31
599618879247952512,29
599618879255637888,29
599618879263323392,29
599618879271008768,31
599618879278694272,29
599618879286379776,16
599618879294065152,16
599618879301750656,41
599618879309436032,65
599618879317121536,67
599618879324806912,60
599618879332492416,53
599618879340177920,36
599618879347863296,19
599618879355548800,21
599618879363234176,31
599618879370919680,29
599618879378605056,24
599618879386290560,29
599618879393976064,29
599618879401661440,26
599618879409346944,14
599618879417032320,-62
599618879424717824,-183
599618879432403200,-120
599618879440088704,292
599618879447774208,833
599618879455459584,966
599618879463145088,464
599618879470830464,-91
599618879478515968,-145
599618879486201344,-26
599618879493886848,-38
599618879501572352,-36
599618879509257728,-16
599618879516943232,-29
599618879524628608,-26
599618879532314112,-12
599618879539999488,-9
599618879547684992,-4
599618879555370496,2
599618879563055872,4
599618879570741376,7
599618879578426752,14
599618879586112256,16
599618879593797760,19
599618879601483136,24
599618879609168640,31
599618879616854016,31
599618879624539520,36
599618879632224896,43
599618879639910400,48
599618879647595904,50
599618879655281280,62
599618879662966784,72
599618879670652160,74
599618879678337664,84
599618879686023029,94
599618879693709312,94
599618879701395584,99
599618879709081856,101
599618879716768128,94
599618879724454400,77
599618879732140800,53
599618879739827072,29
599618879747513344,9
599618879755199616,-7
599618879762885888,-16
599618879770572160,-24
599618879778258432,-26
599618879785944704,-29
599618879793630976,-24
599618879801317376,-24
599618879809003648,-26
599618879816689920,-24
599618879824376192,-16
599618879832062464,-16
599618879839748736,-14
599618879847435008,-9
599618879855121280,-7
599618879862807552,-7
599618879870493824,-2
599618879878180224,-2
599618879885866496,-2
599618879893552768,2
599618879901239040,4
599618879908925312,4
599618879916611584,7
599618879924297856,7
599618879931984128,12
599618879939670400,14
599618879947356800,12
599618879955043072,12
599618879962729344,14
599618879970415616,14
599618879978101888,14
599618879985788160,14
599618879993474432,14
599618880001160704,16
599618880008846976,14
599618880016533376,14
599618880024219648,16
599618880031905920,14
599618880039592192,14
599618880047278464,16
599618880054964736,16
599618880062651008,16
599618880070337280,19
599618880078023552,19
599618880085709952,21
599618880093396224,26
599618880101082496,29
599618880108768768,26
599618880116455040,24
599618880124141312,29
599618880131827584,29
599618880139513856,29
599618880147200128,26
599618880154886400,29
599618880162572800,29
599618880170259072,31
599618880177945344,29
599618880185631616,26
599618880193317888,26
599618880201004160,26
599618880208690432,26
599618880216376704,29
599618880224062976,31
599618880231749376,29
599618880239435648,26
599618880247121894,29
599618880254807808,31
599618880262493696,29
599618880270179584,26
599618880277865472,29
599618880285551232,31
599618880293237120,29
599618880300923008,29
599618880308608896,29
599618880316294784,21
599618880323980672,12
599618880331666432,24
599618880339352320,55
599618880347038208,70
599618880354724096,65
599618880362409984,60
599618880370095872,48
599618880377781632,29
599618880385467520,19
599618880393153408,26
599618880400839296,33
599618880408525184,29
599618880416211072,26
599618880423896960,26
599618880431582720,29
599618880439268608,29
599618880446954496,-4
599618880454640384,-113
599618880462326272,-198
599618880470012160,7
599618880477697920,536
599618880485383808,1000
599618880493069696,867
599618880500755584,224
599618880508441472,-174
599618880516127360,-108
599618880523813120,-26
599618880531499008,-41
599618880539184896,-26
599618880546870784,-21
599618880554556672,-31
599618880562242560,-21
599618880569928448,-12
599618880577614208,-9
599618880585300096,-2
599618880592985984,2
599618880600671872,7
599618880608357760,12
599618880616043648,16
599618880623729408,19
599618880631415296,21
599618880639101184,29
599618880646787072,33
599618880654472960,36
599618880662158848,41
599618880669844608,48
599618880677530496,53
599618880685216384,60
599618880692902272,65
599618880700588160,74
599618880708274048,82
599618880715959808,87
599618880723645696,94
599618880731331584,96
599618880739017472,96
599618880746703360,94
599618880754389248,87
599618880762075136,67
599618880769760896,38
599618880777446784,14
599618880785132672,-7
599618880792818560,-19
599618880800504448,-26
599618880808190237,-31
599618880815876096,-33
599618880823561984,-31
599618880831247872,-31
599618880838933760,-29
599618880846619520,-24
599618880854305408,-21
599618880861991296,-19
599618880869677184,-19
599618880877363072,-16
599618880885048960,-12
599618880892734720,-9
599618880900420608,-9
599618880908106496,-9
599618880915792384,-4
599618880923478272,0
599618880931164160,0
599618880938849920,0
599618880946535808,4
599618880954221696,7
599618880961907584,7
599618880969593472,7
599618880977279360,7
599618880984965248,9
599618880992651008,9
599618881000336896,7
599618881008022784,9
599618881015708672,12
599618881023394560,12
599618881031080448,14
599618881038766208,14
599618881046452096,14
599618881054137984,14
599618881061823872,12
599618881069509760,12
599618881077195648,14
599618881084881408,16
599618881092567296,16
599618881100253184,19
599618881107939072,19
599618881115624960,16
599618881123310848,19
599618881130996736,19
599618881138682496,19
599618881146368384,19
599618881154054272,19
599618881161740160,19
599618881169426048,19
599618881177111936,19
599618881184797696,21
599618881192483584,24
599618881200169472,24
599618881207855360,21
599618881215541248,19
599618881223227136,21
599618881230912896,24
599618881238598784,21
599618881246284672,21
599618881253970560,21
599618881261656448,21
599618881269342336,24
599618881277028096,21
599618881284713984,21
599618881292399872,12
599618881300085760,7
599618881307771648,26
599618881315457536,55
599618881323143424,67
599618881330829184,60
599618881338515072,50
599618881346200960,36
599618881353886848,16
599618881361572736,14
599618881369258580,24
599618881376944512,26
599618881384630400,21
599618881392316288,24
599618881400002176,26
599618881407687936,26
599618881415373824,21
599618881423059712,-33
599618881430745600,-161
599618881438431488,-186
599618881446117376,137
599618881453803136,715
599618881461489024,1041
599618881469174912,693
599618881476860800,31
599618881484546688,-207
599618881492232576,-91
599618881499918336,-43
599618881507604224,-38
599618881515290112,-19
599618881522976000,-33
599618881530661888,-31
599618881538347776,-14
599618881546033664,-12
599618881553719424,-9
599618881561405312,0
599618881569091200,7
599618881576777088,7
599618881584462976,12
599618881592148864,16
599618881599834624,21
599618881607520512,26
599618881615206400,29
599618881622892288,33
599618881630578176,41
599618881638264064,45
599618881645949824,50
599618881653635712,58
599618881661321600,65
599618881669007488,72
599618881676693376,84
599618881684379264,89
599618881692065152,94
599618881699750912,99
599618881707436800,103
599618881715122688,103
599618881722808576,96
599618881730494464,77
599618881738180352,53
599618881745866112,24
599618881753552000,2
599618881761237888,-14
599618881768923776,-29
599618881776609664,-36
599618881784295552,-36
599618881791981312,-36
599618881799667200,-36
599618881807353088,-36
599618881815038976,-33
599618881822724864,-31
599618881830410752,-26
599618881838096512,-24
599618881845782400,-24
599618881853468288,-21
599618881861154176,-16
599618881868840064,-14
599618881876525952,-12
599618881884211840,-9
599618881891897600,-7
599618881899583488,-4
599618881907269376,-4
599618881914955264,0
599618881922641152,2
599618881930326923,0
599618881938012800,2
599618881945698688,4
599618881953384576,4
599618881961070464,4
599618881968756224,4
599618881976442112,4
599618881984128000,7
599618881991813888,7
599618881999499776,7
599618882007185664,4
599618882014871424,7
599618882022557312,7
599618882030243200,7
599618882037929088,7
599618882045614976,9
599618882053300864,9
599618882060986624,12
599618882068672512,12
599618882076358400,9
599618882084044288,9
599618882091730176,14
599618882099416064,16
599618882107101952,14
599618882114787712,16
599618882122473600,16
599618882130159488,16
599618882137845376,16
599618882145531264,19
599618882153217152,19
599618882160902912,16
599618882168588800,19
599618882176274688,19
599618882183960576,16
599618882191646464,19
599618882199332352,19
599618882207018112,16
599618882214704000,16
599618882222389888,19
599618882230075776,12
599618882237761664,2
599618882245447552,14
599618882253133440,45
599618882260819200,62
599618882268505088,60
599618882276190976,53
599618882283876864,41
599618882291562752,21
599618882299248640,12
599618882306934400,16
599618882314620288,19
599618882322306176,19
599618882329992064,19
599618882337677952,19
599618882345363840,19
599618882353049600,19
599618882360735488,2
599618882368421376,-91
599618882376107264,-207
599618882383793152,-89
599618882391479040,396
599618882399164800,945
599618882406850688,978
599618882414536576,372
599618882422222464,-159
599618882429908352,-178
599618882437594240,-65
599618882445280128,-50
599618882452965888,-24
599618882460651776,-19
599618882468337664,-38
599618882476023552,-26
599618882483709440,-12
599618882491395266,-12
599618882499081216,-4
599618882506767104,4
599618882514452992,7
599618882522138880,7
599618882529824640,14
599618882537510528,21
599618882545196416,24
599618882552882304,26
599618882560568192,33
599618882568254080,38
599618882575939840,43
599618882583625728,50
599618882591311616,55
599618882598997504,65
599618882606683392,74
599618882614369280,82
599618882622055040,87
599618882629740928,94
599618882637426816,99
599618882645112704,103
599618882652798592,103
599618882660484480,101
599618882668170368,89
599618882675856128,65
599618882683542016,36
599618882691227904,7
599618882698913792,-12
599618882706599680,-24
599618882714285568,-33
599618882721971328,-38
599618882729657216,-41
599618882737343104,-41
599618882745028992,-36
599618882752714880,-33
599618882760400768,-33
599618882768086528,-31
599618882775772416,-26
599618882783458304,-21
599618882791144192,-19
599618882798830080,-19
599618882806515968,-14
599618882814201856,-12
599618882821887616,-12
599618882829573504,-7
599618882837259392,-2
599618882844945280,0
599618882852631168,0
599618882860317056,2
599618882868002816,4
599618882875688704,4
599618882883374592,4
599618882891060480,4
599618882898746368,7
599618882906432256,4
599618882914118016,4
599618882921803904,7
599618882929489792,7
599618882937175680,7
599618882944861568,7
599618882952547456,9
599618882960233216,9
599618882967919104,9
599618882975604992,9
599618882983290880,12
599618882990976768,12
599618882998662656,12
599618883006348544,12
599618883014034304,12
599618883021720192,14
599618883029406080,14
599618883037091968,16
599618883044777856,16
599618883052463609,14
599618883060149504,14
599618883067835392,16
599618883075521280,16
599618883083207168,16
599618883090892928,16
599618883098578816,16
599618883106264704,16
599618883113950592,16
599618883121636480,16
599618883129322368,16
599618883137008128,16
599618883144694016,14
599618883152379904,7
599618883160065792,7
599618883167751680,33
599618883175437568,62
599618883183123328,62
599618883190809216,53
599618883198495104,50
599618883206180992,29
599618883213866880,12
599618883221552768,16
599618883229238656,19
599618883236924416,16
599618883244610304,19
599618883252296192,19
599618883259982080,19
599618883267667968,19
599618883275353856,16
599618883283039616,-43
599618883290725504,-176
599618883298411392,-181
599618883306097280,186
599618883313783168,783
599618883321469056,1065
599618883329154816,640
599618883336840704,-26
599618883344526592,-217
599618883352212480,-96
599618883359898368,-58
599618883367584256,-36
599618883375270144,-12
599618883382955904,-31
599618883390641792,-31
599618883398327680,-9
599618883406013568,-4
599618883413699456,-2
599618883421385344,7
599618883429071104,12
599618883436756992,14
599618883444442880,19
599618883452128768,21
599618883459814656,26
599618883467500544,31
599618883475186304,36
599618883482872192,43
599618883490558080,50
599618883498243968,55
599618883505929856,58
599618883513615744,65
599618883521301504,74
599618883528987392,79
599618883536673280,87
599618883544359168,96
599618883552045056,101
599618883559730944,101
599618883567416832,103
599618883575102592,103
599618883582788480,96
599618883590474368,74
599618883598160256,45
599618883605846144,16
599618883613531952,-4
599618883621217792,-19
599618883628903680,-31
599618883636589568,-36
599618883644275456,-38
599618883651961216,-36
599618883659647104,-33
599618883667332992,-33
599618883675018880,-31
599618883682704768,-29
599618883690390656,-26
599618883698076416,-21
599618883705762304,-19
599618883713448192,-19
599618883721134080,-16
599618883728819968,-9
599618883736505856,-9
599618883744191616,-7
599618883751877504,-4
599618883759563392,-2
599618883767249280,0
599618883774935168,2
599618883782621056,4
599618883790306944,4
599618883797992704,4
599618883805678592,4
599618883813364480,7
599618883821050368,7
599618883828736256,7
599618883836422144,4
599618883844107904,7
599618883851793792,9
599618883859479680,7
599618883867165568,7
599618883874851456,12
599618883882537344,12
599618883890223104,9
599618883897908992,9
599618883905594880,9
599618883913280768,12
599618883920966656,12
599618883928652544,14
599618883936338432,12
599618883944024192,12
599618883951710080,14
599618883959395968,16
599618883967081856,14
599618883974767744,9
599618883982453632,7
599618883990139392,4
599618883997825280,0
599618884005511168,16
599618884013197056,53
599618884020882944,62
599618884028568832,55
599618884036254592,48
599618884043940480,33
599618884051626368,16
599618884059312256,9
599618884066998144,16
599618884074684032,19
599618884082369920,16
599618884090055680,16
599618884097741568,16
599618884105427456,16
599618884113113344,21
599618884120799232,7
599618884128485120,-84
599618884136170880,-203
599618884143856768,-94
599618884151542656,381
599618884159228544,913
599618884166914432,920
599618884174600299,304
599618884182286208,-205
599618884189972096,-198
599618884197657984,-89
599618884205343872,-65
599618884213029632,-9
599618884220715520,2
599618884228401408,-29
599618884236087296,-12
599618884243773184,4
599618884251459072,-2
599618884259144832,2
599618884266830720,16
599618884274516608,19
599618884282202496,21
599618884289888384,26
599618884297574272,31
599618884305260032,36
599618884312945920,41
599618884320631808,45
599618884328317696,50
599618884336003584,58
599618884343689472,60
599618884351375360,65
599618884359061120,72
599618884366747008,82
599618884374432896,91
599618884382118784,99
599618884389804672,103
599618884397490560,108
599618884405176320,113
599618884412862208,113
599618884420548096,106
599618884428233984,87
599618884435919872,60
599618884443605760,26
599618884451291520,-2
599618884458977408,-24
599618884466663296,-33
599618884474349184,-41
599618884482035072,-43
599618884489720960,-43
599618884497406848,-43
599618884505092608,-43
599618884512778496,-38
599618884520464384,-36
599618884528150272,-33
599618884535836160,-29
599618884543522048,-29
599618884551207808,-24
599618884558893696,-21
599618884566579584,-24
599618884574265472,-19
599618884581951360,-14
599618884589637248,-12
599618884597323008,-9
599618884605008896,-7
599618884612694784,-7
599618884620380672,-4
599618884628066560,-2
599618884635752448,-2
599618884643438208,-2
599618884651124096,0
599618884658809984,0
599618884666495872,2
599618884674181760,0
599618884681867648,-2
599618884689553536,2
599618884697239296,4
599618884704925184,4
599618884712611072,4
599618884720296960,4
599618884727982848,4
599618884735668642,7
599618884743354496,7
599618884751040384,7
599618884758726272,2
599618884766412160,0
599618884774097920,4
599618884781783808,2
599618884789469696,-4
599618884797155584,7
599618884804841472,41
599618884812527360,55
599618884820213120,48
599618884827899008,43
599618884835584896,33
599618884843270784,12
599618884850956672,7
599618884858642560,12
599618884866328320,12
599618884874014208,7
599618884881700096,9
599618884889385984,14
599618884897071872,14
599618884904757760,12
599618884912443648,4
599618884920129408,-55
599618884927815296,-174
599618884935501184,-154
599618884943187072,224
599618884950872960,763
599618884958558848,911
599618884966244608,406
599618884973930496,-164
599618884981616384,-227
599618884989302272,-96
599618884996988160,-72
599618885004674048,-16
599618885012359808,16
599618885020045696,-21
599618885027731584,-19
599618885035417472,9
599618885043103360,7
599618885050789248,2
599618885058475136,14
599618885066160896,19
599618885073846784,19
599618885081532672,24
599618885089218560,31
599618885096904448,31
599618885104590336,36
599618885112276096,43
599618885119961984,48
599618885127647872,53
599618885135333760,60
599618885143019648,67
599618885150705536,70
599618885158391296,79
599618885166077184,87
599618885173763072,96
599618885181448960,103
599618885189134848,106
599618885196820736,111
599618885204506496,113
599618885212192384,108
599618885219878272,89
599618885227564160,58
599618885235250048,21
599618885242935936,-4
599618885250621824,-24
599618885258307584,-36
599618885265993472,-43
599618885273679360,-45
599618885281365248,-45
599618885289051136,-45
599618885296736985,-43
599618885304422912,-41
599618885312108800,-41
599618885319794688,-41
599618885327480576,-33
599618885335166336,-33
599618885342852224,-33
599618885350538112,-29
599618885358224000,-21
599618885365909888,-21
599618885373595776,-19
599618885381281536,-12
599618885388967424,-9
599618885396653312,-9
599618885404339200,-7
599618885412025088,-4
599618885419710976,-2
599618885427396736,2
599618885435082624,0
599618885442768512,0
599618885450454400,2
599618885458140288,2
599618885465826176,2
599618885473512064,2
599618885481197824,7
599618885488883712,4
599618885496569600,2
599618885504255488,2
599618885511941376,4
599618885519627264,2
599618885527313024,2
599618885534998912,2
599618885542684800,-2
599618885550370688,2
599618885558056576,31
599618885565742464,50
599618885573428224,45
599618885581114112,38
599618885588800000,31
599618885596485888,12
599618885604171776,2
599618885611857664,9
599618885619543552,12
599618885627229312,7
599618885634915200,7
599618885642601088,12
599618885650286976,14
599618885657972864,14
599618885665658752,9
599618885673344512,-31
599618885681030400,-140
599618885688716288,-183
599618885696402176,79
599618885704088064,587
599618885711773952,882
599618885719459712,546
599618885727145600,-67
599618885734831488,-244
599618885742517376,-101
599618885750203264,-60
599618885757889152,-36
599618885765574912,12
599618885773260800,-7
599618885780946688,-21
599618885788632576,2
599618885796318464,7
599618885804004352,4
599618885811690240,14
599618885819376000,19
599618885827061888,19
599618885834747776,26
599618885842433664,29
599618885850119552,29
599618885857805328,31
599618885865491200,38
599618885873177088,41
599618885880862976,48
599618885888548864,53
599618885896234624,55
599618885903920512,62
599618885911606400,72
599618885919292288,84
599618885926978176,91
599618885934664064,91
599618885942349824,101
599618885950035712,111
599618885957721600,108
599618885965407488,99
599618885973093376,87
599618885980779264,62
599618885988465024,26
599618885996150912,-2
599618886003836800,-19
599618886011522688,-33
599618886019208576,-41
599618886026894464,-45
599618886034580352,-43
599618886042266112,-43
599618886049952000,-41
599618886057637888,-36
599618886065323776,-38
599618886073009664,-38
599618886080695552,-31
599618886088381312,-29
599618886096067200,-26
599618886103753088,-21
599618886111438976,-19
599618886119124864,-19
599618886126810752,-14
599618886134496512,-12
599618886142182400,-12
599618886149868288,-7
599618886157554176,-2
599618886165240064,-2
599618886172925952,0
599618886180611840,2
599618886188297600,0
599618886195983488,2
599618886203669376,4
599618886211355264,2
599618886219041152,4
599618886226727040,9
599618886234412800,7
599618886242098688,4
599618886249784576,7
599618886257470464,7
599618886265156352,4
599618886272842240,2
599618886280528000,7
599618886288213888,4
599618886295899776,-2
599618886303585664,7
599618886311271552,36
599618886318957440,53
599618886326643200,45
599618886334329088,41
599618886342014976,31
599618886349700864,9
599618886357386752,0
599618886365072640,7
599618886372758528,12
599618886380444288,9
599618886388130176,7
599618886395816064,9
599618886403501952,12
599618886411187840,9
599618886418873671,9
599618886426559616,-19
599618886434245504,-120
599618886441931392,-178
599618886449617280,43
599618886457303040,534
599618886464988928,850
599618886472674816,563
599618886480360704,-29
599618886488046592,-224
599618886495732480,-94
599618886503418240,-50
599618886511104128,-36
599618886518790016,9
599618886526475904,-4
599618886534161792,-21
599618886541847680,0
599618886549533440,7
599618886557219328,2
599618886564905216,9
599618886572591104,19
599618886580276992,19
599618886587962880,21
599618886595648768,26
599618886603334528,29
599618886611020416,33
599618886618706304,36
599618886626392192,43
599618886634078080,48
599618886641763968,50
599618886649449728,53
599618886657135616,62
599618886664821504,67
599618886672507392,74
599618886680193280,82
599618886687879168,87
599618886695564928,94
599618886703250816,96
599618886710936704,96
599618886718622592,94
599618886726308480,79
599618886733994368,58
599618886741680256,29
599618886749366016,0
599618886757051904,-16
599618886764737792,-24
599618886772423680,-31
599618886780109568,-38
599618886787795456,-38
599618886795481216,-33
599618886803167104,-31
599618886810852992,-31
599618886818538880,-29
599618886826224768,-21
599618886833910656,-21
599618886841596416,-24
599618886849282304,-21
599618886856968192,-16
599618886864654080,-14
599618886872339968,-14
599618886880025856,-9
599618886887711616,-4
599618886895397504,-2
599618886903083392,-4
599618886910769280,-4
599618886918455168,0
599618886926141056,4
599618886933826944,4
599618886941512704,2
599618886949198592,4
599618886956884480,7
599618886964570368,7
599618886972256256,9
599618886979942014,12
599618886987627904,9
599618886995313792,7
599618887002999680,9
599618887010685568,9
599618887018371328,9
599618887026057216,12
599618887033743104,14
599618887041428992,12
599618887049114880,12
599618887056800768,12
599618887064486528,9
599618887072172416,9
599618887079858304,7
599618887087544192,4
599618887095230080,26
599618887102915968,48
599618887110601728,48
599618887118287616,43
599618887125973504,41
599618887133659392,24
599618887141345280,7
599618887149031168,7
599618887156717056,12
599618887164402816,14
599618887172088704,12
599618887179774592,12
599618887187460480,16
599618887195146368,14
599618887202832256,12
599618887210518016,4
599618887218203904,-65
599618887225889792,-164
599618887233575680,-74
599618887241261568,321
599618887248947456,749
599618887256633216,710
599618887264319104,178
599618887272004992,-188
599618887279690880,-123
599618887287376768,-38
599618887295062656,-43
599618887302748544,-2
599618887310434304,7
599618887318120192,-21
599618887325806080,-9
599618887333491968,12
599618887341177856,7
599618887348863744,7
599618887356549504,16
599618887364235392,19
599618887371921280,19
599618887379607168,24
599618887387293056,26
599618887394978944,29
599618887402664704,33
599618887410350592,38
599618887418036480,41
599618887425722368,48
599618887433408256,50
599618887441094144,53
599618887448780032,60
599618887456465792,70
599618887464151680,72
599618887471837568,74
599618887479523456,84
599618887487209344,89
599618887494895232,89
599618887502580992,87
599618887510266880,82
599618887517952768,60
599618887525638656,36
599618887533324544,12
599618887541010361,-7
599618887548696192,-19
599618887556382080,-26
599618887564067968,-33
599618887571753856,-33
599618887579439616,-33
599618887587125504,-31
599618887594811392,-29
599618887602497280,-26
599618887610183168,-29
599618887617869056,-29
599618887625554816,-19
599618887633240704,-16
599618887640926592,-16
599618887648612480,-16
599618887656298368,-12
599618887663984256,-9
599618887671670016,-7
599618887679355904,-4
599618887687041792,-2
599618887694727680,0
599618887702413568,0
599618887710099456,0
599618887717785344,4
599618887725471104,4
599618887733156992,4
599618887740842880,4
599618887748528768,9
599618887756214656,14
599618887763900544,12
599618887771586304,7
599618887779272192,7
599618887786958080,12
599618887794643968,12
599618887802329856,9
599618887810015744,9
599618887817701504,12
599618887825387392,16
599618887833073280,14
599618887840759168,12
599618887848445056,16
599618887856130944,19
599618887863816832,14
599618887871502592,12
599618887879188480,14
599618887886874368,16
599618887894560256,16
599618887902246144,16
599618887909932032,16
599618887917617792,16
599618887925303680,19
599618887932989568,19
599618887940675456,19
599618887948361344,19
599618887956047232,16
599618887963732992,16
599618887971418880,19
599618887979104768,19
599618887986790656,14
599618887994476544,14
599618888002162432,19
599618888009848192,14
599618888017534080,9
599618888025219968,31
599618888032905856,55
599618888040591744,50
599618888048277632,43
599618888055963520,45
599618888063649280,33
599618888071335168,14
599618888079021056,12
599618888086706944,16
599618888094392832,16
599618888102078704,14
599618888109764608,16
599618888117450496,19
599618888125136384,16
599618888132822272,14
599618888140508032,2
599618888148193920,-60
599618888155879808,-152
599618888163565696,-74
599618888171251584,299
599618888178937472,710
599618888186623232,674
599618888194309120,176
599618888201995008,-171
599618888209680896,-111
599618888217366784,-29
599618888225052672,-38
599618888232738432,-7
599618888240424320,7
599618888248110208,-16
599618888255796096,-7
599618888263481984,4
599618888271167872,2
599618888278853760,7
599618888286539520,16
599618888294225408,16
599618888301911296,19
599618888309597184,24
599618888317283072,19
599618888324968960,21
599618888332654720,31
599618888340340608,31
599618888348026496,31
599618888355712384,38
599618888363398272,43
599618888371084160,43
599618888378769920,43
599618888386455808,53
599618888394141696,58
599618888401827584,62
599618888409513472,67
599618888417199360,67
599618888424885248,72
599618888432571008,72
599618888440256896,67
599618888447942784,58
599618888455628672,41
599618888463314560,19
599618888471000448,-2
599618888478686208,-16
599618888486372096,-21
599618888494057984,-29
599618888501743872,-31
599618888509429760,-31
599618888517115648,-31
599618888524801408,-33
599618888532487296,-26
599618888540173184,-21
599618888547859072,-26
599618888555544960,-19
599618888563230848,-14
599618888570916608,-19
599618888578602496,-16
599618888586288384,-12
599618888593974272,-14
599618888601660160,-7
599618888609346048,0
599618888617031936,-2
599618888624717696,-7
599618888632403584,0
599618888640089472,2
599618888647775360,0
599618888655461248,4
599618888663147047,7
599618888670832896,7
599618888678518784,7
599618888686204672,7
599618888693890560,7
599618888701576320,9
599618888709262208,9
599618888716948096,12
599618888724633984,9
599618888732319872,9
599618888740005760,14
599618888747691520,14
599618888755377408,12
599618888763063296,16
599618888770749184,16
599618888778435072,14
599618888786120960,14
599618888793806720,16
599618888801492608,16
599618888809178496,14
599618888816864384,16
599618888824550272,16
599618888832236160,19
599618888839922048,19
599618888847607808,16
599618888855293696,19
599618888862979584,19
599618888870665472,19
599618888878351360,21
599618888886037248,19
599618888893723008,16
599618888901408896,24
599618888909094784,26
599618888916780672,14
599618888924466560,9
599618888932152448,29
599618888939838208,48
599618888947524096,53
599618888955209984,50
599618888962895872,48
599618888970581760,31
599618888978267648,14
599618888985953536,14
599618888993639296,21
599618889001325184,16
599618889009011072,14
599618889016696960,21
599618889024382848,24
599618889032068736,16
599618889039754496,16
599618889047440384,14
599618889055126272,-45
599618889062812160,-135
599618889070498048,-77
599618889078183936,261
599618889085869696,655
599618889093555584,635
599618889101241472,164
599618889108927360,-166
599618889116613248,-99
599618889124299136,-19
599618889131984896,-33
599618889139670784,2
599618889147356672,19
599618889155042560,-7
599618889162728448,0
599618889170414336,14
599618889178100224,9
599618889185785984,12
599618889193471872,24
599618889201157760,24
599618889208843648,21
599618889216529536,31
599618889224215390,33
599618889231901312,26
599618889239587200,29
599618889247273088,38
599618889254958976,41
599618889262644736,43
599618889270330624,45
599618889278016512,50
599618889285702400,55
599618889293388288,58
599618889301074176,62
599618889308759936,74
599618889316445824,74
599618889324131712,74
599618889331817600,82
599618889339503488,84
599618889347189376,74
599618889354875136,60
599618889362561024,45
599618889370246912,24
599618889377932800,-2
599618889385618688,-12
599618889393304576,-12
599618889400990464,-19
599618889408676224,-26
599618889416362112,-26
599618889424048000,-21
599618889431733888,-21
599618889439419776,-19
599618889447105664,-14
599618889454791424,-16
599618889462477312,-19
599618889470163200,-14
599618889477849088,-9
599618889485534976,-9
599618889493220864,-7
599618889500906624,-4
599618889508592512,-4
599618889516278400,-9
599618889523964288,-2
599618889531650176,2
599618889539336064,2
599618889547021952,4
599618889554707712,9
599618889562393600,12
599618889570079488,9
599618889577765376,4
599618889585451264,12
599618889593137152,19
599618889600822912,14
599618889608508800,12
599618889616194688,16
599618889623880576,14
599618889631566464,14
599618889639252352,14
599618889646938112,12
599618889654624000,14
599618889662309888,16
599618889669995776,16
599618889677681664,19
599618889685367552,19
599618889693053312,14
599618889700739200,16
599618889708425088,19
599618889716110976,19
599618889723796864,19
599618889731482752,19
599618889739168640,24
599618889746854400,24
599618889754540288,19
599618889762226176,21
599618889769912064,24
599618889777597952,19
599618889785283733,19
599618889792969600,24
599618889800655488,26
599618889808341376,21
599618889816027264,21
599618889823713024,21
599618889831398912,24
599618889839084800,24
599618889846770688,24
599618889854456576,29
599618889862142464,26
599618889869828224,21
599618889877514112,21
599618889885200000,29
599618889892885888,31
599618889900571776,24
599618889908257664,24
599618889915943424,24
599618889923629312,21
599618889931315200,26
599618889939001088,43
599618889946686976,58
599618889954372864,60
599618889962058752,48
599618889969744512,41
599618889977430400,31
599618889985116288,19
599618889992802176,21
599618890000488064,26
599618890008173952,26
599618890015859712,24
599618890023545600,24
599618890031231488,26
599618890038917376,33
599618890046603264,26
599618890054289152,-26
599618890061974912,-113
599618890069660800,-89
599618890077346688,198
599618890085032576,592
599618890092718464,647
599618890100404352,227
599618890108090240,-132
599618890115776000,-99
599618890123461888,-12
599618890131147776,-24
599618890138833664,4
599618890146519552,24
599618890154205440,0
599618890161891200,7
599618890169577088,24
599618890177262976,14
599618890184948864,19
599618890192634752,31
599618890200320640,29
599618890208006400,26
599618890215692288,31
599618890223378176,33
599618890231064064,36
599618890238749952,38
599618890246435840,43
599618890254121600,48
599618890261807488,48
599618890269493376,45
599618890277179264,48
599618890284865152,60
599618890292551040,65
599618890300236928,65
599618890307922688,70
599618890315608576,79
599618890323294464,77
599618890330980352,72
599618890338666240,77
599618890346352076,82
599618890354038016,67
599618890361723904,50
599618890369409792,36
599618890377095680,16
599618890384781440,0
599618890392467328,-4
599618890400153216,-12
599618890407839104,-19
599618890415524992,-19
599618890423210880,-14
599618890430896640,-14
599618890438582528,-12
599618890446268416,-14
599618890453954304,-16
599618890461640192,-12
599618890469326080,-7
599618890477011840,-7
599618890484697728,-4
599618890492383616,0
599618890500069504,-2
599618890507755392,0
599618890515441280,0
599618890523127168,2
599618890530812928,7
599618890538498816,4
599618890546184704,9
599618890553870592,14
599618890561556480,14
599618890569242368,14
599618890576928128,14
599618890584614016,14
599618890592299904,14
599618890599985792,19
599618890607671680,16
599618890615357568,14
599618890623043328,19
599618890630729216,16
599618890638415104,16
599618890646100992,21
599618890653786880,19
599618890661472768,14
599618890669158656,21
599618890676844416,24
599618890684530304,16
599618890692216192,16
599618890699902080,19
599618890707587968,21
599618890715273856,24
599618890722959616,24
599618890730645504,24
599618890738331392,24
599618890746017280,19
599618890753703168,21
599618890761389056,26
599618890769074816,26
599618890776760704,21
599618890784446592,21
599618890792132480,24
599618890799818368,26
599618890807504256,24
599618890815190144,26
599618890822875904,26
599618890830561792,21
599618890838247680,21
599618890845933568,29
599618890853619456,26
599618890861305344,24
599618890868991104,29
599618890876676992,31
599618890884362880,26
599618890892048768,24
599618890899734656,26
599618890907420423,29
599618890915106304,26
599618890922792192,26
599618890930478080,29
599618890938163968,31
599618890945849728,26
599618890953535616,24
599618890961221504,31
599618890968907392,24
599618890976593280,14
599618890984279168,33
599618890991964928,55
599618890999650816,65
599618891007336704,55
599618891015022592,41
599618891022708480,33
599618891030394368,24
599618891038080128,21
599618891045766016,31
599618891053451904,31
599618891061137792,19
599618891068823680,24
599618891076509568,29
599618891084195456,24
599618891091881216,24
599618891099567104,4
599618891107252992,-77
599618891114938880,-120
599618891122624768,67
599618891130310656,449
599618891137996416,650
599618891145682304,377
599618891153368192,-50
599618891161054080,-140
599618891168739968,-29
599618891176425856,-12
599618891184111616,-7
599618891191797504,24
599618891199483392,9
599618891207169280,2
599618891214855168,16
599618891222541056,19
599618891230226944,19
599618891237912704,26
599618891245598592,26
599618891253284480,26
599618891260970368,33
599618891268656256,33
599618891276342144,33
599618891284027904,41
599618891291713792,43
599618891299399680,38
599618891307085568,48
599618891314771456,53
599618891322457344,43
599618891330143104,50
599618891337828992,67
599618891345514880,67
599618891353200768,62
599618891360886656,72
599618891368572544,77
599618891376258304,72
599618891383944192,72
599618891391630080,79
599618891399315968,77
599618891407001856,55
599618891414687744,38
599618891422373632,26
599618891430059392,7
599618891437745280,-7
599618891445431168,-9
599618891453117056,-14
599618891460802944,-16
599618891468488766,-19
599618891476174592,-21
599618891483860480,-16
599618891491546368,-14
599618891499232256,-14
599618891506918016,-14
599618891514603904,-14
599618891522289792,-14
599618891529975680,-12
599618891537661568,-4
599618891545347456,-4
599618891553033216,-2
599618891560719104,2
599618891568404992,2
599618891576090880,2
599618891583776768,4
599618891591462656,9
599618891599148416,9
599618891606834304,4
599618891614520192,7
599618891622206080,14
599618891629891968,16
599618891637577856,14
599618891645263744,12
599618891652949504,16
599618891660635392,19
599618891668321280,16
599618891676007168,19
599618891683693056,16
599618891691378944,12
599618891699064704,19
599618891706750592,19
599618891714436480,12
599618891722122368,19
599618891729808256,26
599618891737494144,21
599618891745179904,16
599618891752865792,21
599618891760551680,24
599618891768237568,21
599618891775923456,19
599618891783609344,21
599618891791295232,24
599618891798980992,26
599618891806666880,24
599618891814352768,19
599618891822038656,24
599618891829724544,26
599618891837410432,19
599618891845096192,21
599618891852782080,24
599618891860467968,21
599618891868153856,24
599618891875839744,29
599618891883525632,26
599618891891211392,24
599618891898897280,21
599618891906583168,24
599618891914269056,29
599618891921954944,26
599618891929640832,24
599618891937326592,26
599618891945012480,29
599618891952698368,29
599618891960384256,26
599618891968070144,26
599618891975756032,29
599618891983441920,26
599618891991127680,24
599618891998813568,21
599618892006499456,19
599618892014185344,38
599618892021871232,60
599618892029557109,58
599618892037243008,45
599618892044928896,41
599618892052614784,29
599618892060300672,16
599618892067986432,19
599618892075672320,26
599618892083358208,24
599618892091044096,21
599618892098729984,24
599618892106415872,29
599618892114101632,24
599618892121787520,19
599618892129473408,-12
599618892137159296,-99
599618892144845184,-91
599618892152531072,166
599618892160216832,524
599618892167902720,587
599618892175588608,217
599618892183274496,-125
599618892190960384,-106
599618892198646272,-14
599618892206332160,-19
599618892214017920,7
599618892221703808,29
599618892229389696,7
599618892237075584,12
599618892244761472,24
599618892252447360,19
599618892260133120,24
599618892267819008,33
599618892275504896,29
599618892283190784,26
599618892290876672,38
599618892298562560,41
599618892306248320,36
599618892313934208,36
599618892321620096,41
599618892329305984,41
599618892336991872,48
599618892344677760,53
599618892352363648,53
599618892360049408,58
599618892367735296,62
599618892375421184,70
599618892383107072,74
599618892390792960,74
599618892398478848,82
599618892406164608,87
599618892413850496,79
599618892421536384,72
599618892429222272,74
599618892436908160,60
599618892444594048,36
599618892452279808,16
599618892459965696,2
599618892467651584,-9
599618892475337472,-12
599618892483023360,-16
599618892490709248,-21
599618892498395008,-21
599618892506080896,-16
599618892513766784,-16
599618892521452672,-16
599618892529138560,-12
599618892536824448,-12
599618892544510336,-9
599618892552196096,-4
599618892559881984,-7
599618892567567872,-9
599618892575253760,-4
599618892582939648,-2
599618892590625452,-2
599618892598310912,0
599618892605996416,4
599618892613681792,7
599618892621367296,9
599618892629052672,12
599618892636738176,14
599618892644423552,14
599618892652109056,9
599618892659794560,9
599618892667479936,14
599618892675165440,21
599618892682850816,19
599618892690536320,14
599618892698221696,16
599618892705907200,19
599618892713592704,16
599618892721278080,16
599618892728963584,14
599618892736648960,16
599618892744334464,21
599618892752019968,19
599618892759705344,19
599618892767390848,19
599618892775076224,19
599618892782761728,21
599618892790447104,26
599618892798132608,24
599618892805818112,21
599618892813503488,21
599618892821188992,19
599618892828874368,24
599618892836559872,26
599618892844245248,21
599618892851930752,21
599618892859616256,24
599618892867301632,26
599618892874987136,24
599618892882672512,21
599618892890358016,24
599618892898043392,26
599618892905728896,24
599618892913414400,26
599618892921099776,26
599618892928785280,21
599618892936470656,24
599618892944156160,29
599618892951841536,26
599618892959527040,26
599618892967212544,29
599618892974897920,29
599618892982583424,26
599618892990268800,26
599618892997954304,33
599618893005639680,29
599618893013325184,19
599618893021010688,24
599618893028696064,41
599618893036381568,58
599618893044066944,60
599618893051752448,53
599618893059437952,45
599618893067123328,33
599618893074808832,24
599618893082494208,24
599618893090179712,31
599618893097865088,33
599618893105550592,26
599618893113236096,24
599618893120921472,29
599618893128606976,31
599618893136292352,24
599618893143977856,-4
599618893151663277,-77
599618893159349120,-99
599618893167035008,111
599618893174720896,476
599618893182406784,587
599618893190092544,258
599618893197778432,-108
599618893205464320,-125
599618893213150208,-21
599618893220836096,-12
599618893228521984,7
599618893236207744,36
599618893243893632,21
599618893251579520,12
599618893259265408,26
599618893266951296,31
599618893274637184,24
599618893282322944,26
599618893290008832,36
599618893297694720,38
599618893305380608,36
599618893313066496,45
599618893320752384,50
599618893328438272,45
599618893336124032,45
599618893343809920,48
599618893351495808,55
599618893359181696,58
599618893366867584,62
599618893374553472,65
599618893382239232,74
599618893389925120,79
599618893397611008,82
599618893405296896,89
599618893412982784,91
599618893420668672,96
599618893428354432,101
599618893436040320,96
599618893443726208,87
599618893451412096,70
599618893459097984,45
599618893466783872,29
599618893474469760,14
599618893482155520,-2
599618893489841408,-12
599618893497527296,-12
599618893505213184,-14
599618893512899072,-14
599618893520584960,-9
599618893528270720,-12
599618893535956608,-14
599618893543642496,-9
599618893551328384,-9
599618893559014272,-4
599618893566700160,-4
599618893574385920,-7
599618893582071808,-2
599618893589757696,4
599618893597443584,4
599618893605129472,0
599618893612815360,7
599618893620501120,14
599618893628187008,9
599618893635872896,12
599618893643558784,19
599618893651244672,16
599618893658930560,16
599618893666616448,26
599618893674302208,21
599618893681988096,16
599618893689673984,26
599618893697359872,31
599618893705045760,19
599618893712731620,16
599618893720417536,21
599618893728103424,24
599618893735789312,21
599618893743475200,21
599618893751160960,21
599618893758846848,24
599618893766532736,29
599618893774218624,24
599618893781904512,21
599618893789590400,24
599618893797276160,26
599618893804962048,24
599618893812647936,26
599618893820333824,29
599618893828019712,29
599618893835705600,26
599618893843391360,29
599618893851077248,29
599618893858763136,29
599618893866449024,31
599618893874134912,26
599618893881820800,24
599618893889506688,29
599618893897192448,29
599618893904878336,29
599618893912564224,29
599618893920250112,29
599618893927936000,29
599618893935621888,31
599618893943307648,33
599618893950993536,31
599618893958679424,29
599618893966365312,31
599618893974051200,33
599618893981737088,33
599618893989422848,31
599618893997108736,33
599618894004794624,31
599618894012480512,29
599618894020166400,33
599618894027852288,33
599618894035538176,33
599618894043223936,31
599618894050909824,33
599618894058595712,36
599618894066281600,29
599618894073967488,29
599618894081653376,45
599618894089339136,65
599618894097025024,67
599618894104710912,55
599618894112396800,45
599618894120082688,36
599618894127768576,24
599618894135454336,24
599618894143140224,31
599618894150826112,31
599618894158512000,29
599618894166197888,26
599618894173883776,29
599618894181569664,33
599618894189255424,21
599618894196941312,-36
599618894204627200,-116
599618894212313088,-53
599618894219998976,270
599618894227684864,609
599618894235370624,541
599618894243056512,91
599618894250742400,-181
599618894258428288,-99
599618894266114176,-14
599618894273799967,-9
599618894281485824,26
599618894289171712,33
599618894296857600,14
599618894304543488,24
599618894312229248,31
599618894319915136,26
599618894327601024,33
599618894335286912,41
599618894342972800,36
599618894350658688,36
599618894358344448,45
599618894366030336,50
599618894373716224,48
599618894381402112,50
599618894389088000,58
599618894396773888,60
599618894404459648,62
599618894412145536,65
599618894419831424,72
599618894427517312,77
599618894435203200,79
599618894442889088,87
599618894450574976,94
599618894458260736,96
599618894465946624,99
599618894473632512,103
599618894481318400,103
599618894489004288,99
599618894496690176,89
599618894504375936,74
599618894512061824,48
599618894519747712,21
599618894527433600,7
599618894535119488,-4
599618894542805376,-14
599618894550491136,-19
599618894558177024,-21
599618894565862912,-19
599618894573548800,-16
599618894581234688,-16
599618894588920576,-14
599618894596606464,-16
599618894604292224,-14
599618894611978112,-7
599618894619664000,-9
599618894627349888,-12
599618894635035776,-4
599618894642721664,0
599618894650407424,0
599618894658093312,0
599618894665779200,4
599618894673465088,7
599618894681150976,7
599618894688836864,9
599618894696522624,14
599618894704208512,12
599618894711894400,16
599618894719580288,19
599618894727266176,14
599618894734952064,14
599618894742637824,19
599618894750323712,21
599618894758009600,16
599618894765695488,16
599618894773381376,19
599618894781067264,16
599618894788753152,14
599618894796438912,19
599618894804124800,21
599618894811810688,21
599618894819496576,19
599618894827182464,21
599618894834868310,24
599618894842554240,21
599618894850240128,24
599618894857926016,24
599618894865611904,21
599618894873297664,21
599618894880983552,24
599618894888669440,24
599618894896355328,26
599618894904041216,21
599618894911727104,21
599618894919412864,26
599618894927098752,24
599618894934784640,21
599618894942470528,26
599618894950156416,29
599618894957842304,26
599618894965528064,26
599618894973213952,24
599618894980899840,24
599618894988585728,29
599618894996271616,31
599618895003957504,26
599618895011643392,24
599618895019329152,29
599618895027015040,29
599618895034700928,31
599618895042386816,26
599618895050072704,26
599618895057758592,29
599618895065444352,26
599618895073130240,16
599618895080816128,24
599618895088502016,48
599618895096187904,65
599618895103873792,60
599618895111559552,50
599618895119245440,41
599618895126931328,26
599618895134617216,19
599618895142303104,26
599618895149988992,29
599618895157674880,24
599618895165360640,26
599618895173046528,29
599618895180732416,29
599618895188418304,26
599618895196104192,0
599618895203790080,-82
599618895211475840,-140
599618895219161728,29
599618895226847616,444
599618895234533504,749
599618895242219392,524
599618895249905280,-12
599618895257591040,-207
599618895265276928,-70
599618895272962816,-12
599618895280648704,-12
599618895288334592,21
599618895296020480,14
599618895303706240,0
599618895311392128,16
599618895319078016,24
599618895326763904,19
599618895334449792,26
599618895342135680,33
599618895349821568,31
599618895357507328,33
599618895365193216,41
599618895372879104,41
599618895380564992,41
599618895388250880,45
599618895395936653,50
599618895403622528,53
599618895411308416,58
599618895418994304,60
599618895426680192,67
599618895434365952,74
599618895442051840,79
599618895449737728,84
599618895457423616,89
599618895465109504,96
599618895472795392,99
599618895480481152,101
599618895488167040,101
599618895495852928,96
599618895503538816,84
599618895511224704,65
599618895518910592,38
599618895526596352,12
599618895534282240,-2
599618895541968128,-12
599618895549654016,-21
599618895557339904,-26
599618895565025792,-26
599618895572711680,-26
599618895580397440,-24
599618895588083328,-24
599618895595769216,-24
599618895603455104,-24
599618895611140992,-19
599618895618826880,-14
599618895626512640,-14
599618895634198528,-14
599618895641884416,-12
599618895649570304,-7
599618895657256192,-4
599618895664942080,-4
599618895672627840,0
599618895680313728,4
599618895687999616,7
599618895695685504,7
599618895703371392,7
599618895711057280,12
599618895718743168,14
599618895726428928,12
599618895734114816,12
599618895741800704,14
599618895749486592,14
