599617014932299136,396
599617014939984512,389
599617014947670016,372
599617014955355392,343
599617014963040896,338
599617014970726400,345
599617014978411776,343
599617014986097280,338
599617014993782656,338
599617015001468160,338
599617015009153664,338
599617015016839040,333
599617015024524544,292
599617015032209920,186
599617015039895424,157
599617015047580800,451
599617015055266304,937
599617015062951808,1061
599617015070637184,534
599617015078322688,-21
599617015086008064,-9
599617015093693568,164
599617015101378959,198
599617015109064448,299
599617015116749952,360
599617015124435328,294
599617015132120832,290
599617015139806208,326
599617015147491712,316
599617015155177088,309
599617015162862592,326
599617015170548096,326
599617015178233472,319
599617015185918976,328
599617015193604352,335
599617015201289856,331
599617015208975232,333
599617015216660736,343
599617015224346240,345
599617015232031616,345
599617015239717120,350
599617015247402496,357
599617015255088000,360
599617015262773504,364
599617015270458880,372
599617015278144384,372
599617015285829760,369
599617015293515264,369
599617015301200640,362
599617015308886144,348
599617015316571648,323
599617015324257024,292
599617015331942528,263
599617015339627904,241
599617015347313408,229
599617015354998784,222
599617015362684288,219
599617015370369792,219
599617015378055168,219
599617015385740672,224
599617015393426048,227
599617015401111552,224
599617015408796928,224
599617015416482432,227
599617015424167936,227
599617015431853312,227
599617015439538816,227
599617015447224192,229
599617015454909696,236
599617015462595072,236
599617015470280576,232
599617015477966080,229
599617015485651456,236
599617015493336960,236
599617015501022336,234
599617015508707840,234
599617015516393216,234
599617015524078720,234
599617015531764224,234
599617015539449600,232
599617015547135104,234
599617015554820480,241
599617015562505984,246
599617015570191488,244
599617015577876864,244
599617015585562368,248
599617015593247744,248
599617015600933248,246
599617015608618624,251
599617015616304128,261
599617015623989632,263
599617015631675008,258
599617015639360512,256
599617015647045888,256
599617015654731392,253
599617015662416784,253
599617015670102272,248
599617015677787776,248
599617015685473152,277
599617015693158656,299
599617015700844032,285
599617015708529536,275
599617015716214912,273
599617015723900416,251
599617015731585920,239
599617015739271296,246
599617015746956800,248
599617015754642176,246
599617015762327680,248
599617015770013056,246
599617015777698560,246
599617015785384064,251
599617015793069440,234
599617015800754944,159
599617015808440320,94
599617015816125824,241
599617015823811328,640
599617015831496704,903
599617015839182208,611
599617015846867584,53
599617015854553088,-91
599617015862238464,87
599617015869923968,161
599617015877609472,222
599617015885294848,292
599617015892980352,253
599617015900665728,227
599617015908351232,263
599617015916036608,273
599617015923722112,268
599617015931407616,277
599617015939092992,282
599617015946778496,282
599617015954463872,282
599617015962149376,275
599617015969834752,270
599617015977520256,268
599617015985205760,268
599617015992891136,268
599617016000576640,270
599617016008262016,275
599617016015947520,285
599617016023632896,287
599617016031318400,290
599617016039003904,294
599617016046689280,297
599617016054374784,292
599617016062060160,287
599617016069745664,277
599617016077431168,265
599617016085116544,246
599617016092802048,212
599617016100487424,188
599617016108172928,183
599617016115858304,171
599617016123543808,161
599617016131229312,159
599617016138914688,159
599617016146600192,157
599617016154285568,157
599617016161971072,159
599617016169656448,161
599617016177341952,161
599617016185027456,166
599617016192712832,171
599617016200398336,169
599617016208083712,166
599617016215769216,171
599617016223454613,174
599617016231140096,176
599617016238825600,183
599617016246510976,188
599617016254196480,186
599617016261881856,183
599617016269567360,188
599617016277252736,188
599617016284938240,186
599617016292623744,186
599617016300309120,186
599617016307994624,186
599617016315680000,186
599617016323365504,186
599617016331050880,186
599617016338736384,183
599617016346421888,186
599617016354107264,186
599617016361792768,186
599617016369478144,183
599617016377163648,183
599617016384849152,188
599617016392534528,186
599617016400220032,183
599617016407905408,190
599617016415590912,193
599617016423276288,186
599617016430961792,183
599617016438647296,183
599617016446332672,193
599617016454018176,210
599617016461703552,219
599617016469389056,215
599617016477074432,210
599617016484759936,198
599617016492445440,174
599617016500130816,164
599617016507816320,171
599617016515501696,174
599617016523187200,171
599617016530872576,171
599617016538558080,171
599617016546243584,169
599617016553928960,169
599617016561614464,154
599617016569299840,96
599617016576985344,31
599617016584670720,145
599617016592356224,497
599617016600041728,761
599617016607727104,534
599617016615412608,24
599617016623097984,-140
599617016630783488,14
599617016638468864,96
599617016646154368,135
599617016653839872,181
599617016661525248,159
599617016669210752,147
599617016676896128,169
599617016684581632,174
599617016692267136,166
599617016699952512,176
599617016707638016,183
599617016715323392,183
599617016723008896,190
599617016730694272,193
599617016738379776,193
599617016746065280,195
599617016753750656,200
599617016761436160,205
599617016769121536,210
599617016776807040,212
599617016784492438,215
599617016792177920,222
599617016799863424,229
599617016807548800,234
599617016815234304,236
599617016822919680,239
599617016830605184,236
599617016838290560,232
599617016845976064,222
599617016853661568,200
599617016861346944,174
599617016869032448,149
599617016876717824,132
599617016884403328,116
599617016892088704,106
599617016899774208,108
599617016907459712,111
599617016915145088,106
599617016922830592,108
599617016930515968,113
599617016938201472,113
599617016945886976,116
599617016953572352,116
599617016961257856,116
599617016968943232,118
599617016976628736,120
599617016984314112,120
599617016991999616,123
599617016999685120,123
599617017007370496,125
599617017015056000,125
599617017022741376,128
599617017030426880,132
599617017038112256,130
599617017045797760,128
599617017053483264,128
599617017061168640,130
599617017068854144,128
599617017076539520,125
599617017084225024,128
599617017091910400,125
599617017099595904,120
599617017107281408,125
599617017114966784,125
599617017122652288,120
599617017130337664,120
599617017138023168,123
599617017145708544,128
599617017153394048,128
599617017161079552,125
599617017168764928,128
599617017176450432,128
599617017184135808,128
599617017191821312,130
599617017199506688,132
599617017207192192,130
599617017214877696,130
599617017222563072,132
599617017230248576,132
599617017237933952,132
599617017245619456,135
599617017253304960,135
599617017260990336,135
599617017268675840,137
599617017276361216,140
599617017284046720,137
599617017291732096,140
599617017299417600,145
599617017307103104,147
599617017314788480,145
599617017322473984,147
599617017330159360,152
599617017337844864,147
599617017345530263,147
599617017353215744,149
599617017360901248,147
599617017368586624,142
599617017376272128,142
599617017383957504,142
599617017391643008,140
599617017399328384,137
599617017407013888,135
599617017414699392,132
599617017422384768,137
599617017430070272,135
599617017437755648,130
599617017445441152,128
599617017453126528,125
599617017460812032,128
599617017468497536,123
599617017476182912,118
599617017483868416,123
599617017491553792,125
599617017499239296,120
599617017506924800,118
599617017514610176,125
599617017522295680,147
599617017529981056,161
599617017537666560,149
599617017545351936,135
599617017553037440,123
599617017560722944,101
599617017568408320,89
599617017576093824,96
599617017583779200,99
599617017591464704,91
599617017599150080,94
599617017606835584,101
599617017614521088,101
599617017622206464,94
599617017629891968,41
599617017637577344,-58
599617017645262848,-33
599617017652948224,311
599617017660633728,787
599617017668319232,838
599617017676004608,297
599617017683690112,-178
599617017691375488,-149
599617017699060992,-2
599617017706746368,29
599617017714431872,67
599617017722117376,77
599617017729802752,53
599617017737488256,65
599617017745173632,87
599617017752859136,84
599617017760544512,84
599617017768230016,91
599617017775915520,96
599617017783600896,99
599617017791286400,99
599617017798971776,106
599617017806657280,113
599617017814342784,113
599617017822028160,116
599617017829713664,118
599617017837399040,120
599617017845084544,125
599617017852769920,128
599617017860455424,132
599617017868140928,135
599617017875826304,137
599617017883511808,140
599617017891197184,142
599617017898882688,137
599617017906568088,132
599617017914253568,128
599617017921939072,123
599617017929624448,108
599617017937309952,91
599617017944995328,82
599617017952680832,70
599617017960366208,58
599617017968051712,53
599617017975737216,48
599617017983422592,45
599617017991108096,50
599617017998793472,50
599617018006478976,53
599617018014164352,58
599617018021849856,60
599617018029535360,60
599617018037220736,60
599617018044906240,60
599617018052591616,60
599617018060277120,60
599617018067962624,62
599617018075648000,65
599617018083333504,65
599617018091018880,67
599617018098704384,65
599617018106389760,65
599617018114075264,67
599617018121760768,70
599617018129446144,70
599617018137131648,72
599617018144817024,72
599617018152502528,70
599617018160187904,70
599617018167873408,70
599617018175558912,67
599617018183244288,67
599617018190929792,70
599617018198615168,70
599617018206300672,67
599617018213986048,67
599617018221671552,70
599617018229357056,70
599617018237042432,70
599617018244727936,70
599617018252413312,70
599617018260098816,72
599617018267784192,70
599617018275469696,67
599617018283155200,70
599617018290840576,70
599617018298526080,67
599617018306211456,67
599617018313896960,70
599617018321582336,70
599617018329267840,70
599617018336953344,70
599617018344638720,70
599617018352324224,65
599617018360009600,65
599617018367695104,67
599617018375380608,67
599617018383065984,70
599617018390751488,70
599617018398436864,67
599617018406122368,70
599617018413807744,67
599617018421493248,67
599617018429178752,67
599617018436864128,70
599617018444549632,72
599617018452235008,70
599617018459920512,70
599617018467605913,70
599617018475291392,67
599617018482976896,67
599617018490662272,67
599617018498347776,67
599617018506033152,67
599617018513718656,65
599617018521404032,65
599617018529089536,70
599617018536775040,70
599617018544460416,65
599617018552145920,62
599617018559831296,60
599617018567516800,60
599617018575202176,48
599617018582887680,48
599617018590573184,79
599617018598258560,111
599617018605944064,108
599617018613629440,89
599617018621314944,79
599617018629000448,67
599617018636685824,50
599617018644371328,55
599617018652056704,62
599617018659742208,60
599617018667427584,60
599617018675113088,62
599617018682798592,62
599617018690483968,60
599617018698169472,36
599617018705854848,-60
599617018713540352,-137
599617018721225728,60
599617018728911232,577
599617018736596736,974
599617018744282112,727
599617018751967616,62
599617018759652992,-244
599617018767338496,-106
599617018775023872,9
599617018782709376,12
599617018790394880,12
599617018798080256,16
599617018805765760,26
599617018813451136,38
599617018821136640,48
599617018828822016,53
599617018836507520,60
599617018844193024,67
599617018851878400,70
599617018859563904,72
599617018867249280,74
599617018874934784,77
599617018882620160,82
599617018890305664,87
599617018897991168,91
599617018905676544,91
599617018913362048,96
599617018921047424,101
599617018928732928,103
599617018936418432,103
599617018944103808,108
599617018951789312,113
599617018959474688,113
599617018967160192,113
599617018974845568,111
599617018982531072,111
599617018990216576,108
599617018997901952,101
599617019005587456,91
599617019013272832,77
599617019020958336,65
599617019028643738,60
599617019036329216,58
599617019044014720,53
599617019051700096,45
599617019059385600,45
599617019067070976,50
599617019074756480,50
599617019082441856,50
599617019090127360,50
599617019097812864,53
599617019105498240,53
599617019113183744,53
599617019120869120,55
599617019128554624,60
599617019136240000,60
599617019143925504,60
599617019151611008,62
599617019159296384,65
599617019166981888,67
599617019174667264,67
599617019182352768,67
599617019190038272,67
599617019197723648,67
599617019205409152,72
599617019213094528,72
599617019220780032,70
599617019228465408,74
599617019236150912,77
599617019243836416,74
599617019251521792,74
599617019259207296,77
599617019266892672,77
599617019274578176,74
599617019282263552,77
599617019289949056,77
599617019297634560,77
599617019305319936,77
599617019313005440,77
599617019320690816,77
599617019328376320,79
599617019336061696,77
599617019343747200,79
599617019351432704,79
599617019359118080,79
599617019366803584,77
599617019374488960,79
599617019382174464,82
599617019389859840,79
599617019397545344,79
599617019405230848,82
599617019412916224,82
599617019420601728,82
599617019428287104,84
599617019435972608,84
599617019443658112,84
599617019451343488,84
599617019459028992,87
599617019466714368,84
599617019474399872,84
599617019482085248,87
599617019489770752,87
599617019497456256,84
599617019505141632,82
599617019512827136,84
599617019520512512,87
599617019528198016,84
599617019535883392,87
599617019543568896,87
599617019551254400,87
599617019558939776,84
599617019566625280,84
599617019574310656,84
599617019581996160,87
599617019589681567,84
599617019597367040,84
599617019605052544,84
599617019612737920,82
599617019620423424,82
599617019628108800,82
599617019635794304,79
599617019643479680,74
599617019651165184,62
599617019658850688,67
599617019666536064,106
599617019674221568,135
599617019681906944,123
599617019689592448,106
599617019697277824,94
599617019704963328,72
599617019712648832,60
599617019720334208,72
599617019728019712,79
599617019735705088,72
599617019743390592,74
599617019751076096,77
599617019758761472,77
599617019766446976,77
599617019774132352,41
599617019781817856,-72
599617019789503232,-132
599617019797188736,130
599617019804874240,703
599617019812559616,1094
599617019820245120,792
599617019827930496,89
599617019835616000,-222
599617019843301376,-87
599617019850986880,31
599617019858672384,16
599617019866357760,-4
599617019874043264,12
599617019881728640,36
599617019889414144,41
599617019897099520,45
599617019904785024,58
599617019912470528,67
599617019920155904,70
599617019927841408,77
599617019935526784,82
599617019943212288,87
599617019950897664,89
599617019958583168,94
599617019966268672,99
599617019973954048,101
599617019981639552,103
599617019989324928,108
599617019997010432,113
599617020004695808,116
599617020012381312,120
599617020020066816,125
599617020027752192,128
599617020035437696,130
599617020043123072,130
599617020050808576,130
599617020058494080,128
599617020066179456,123
599617020073864960,113
599617020081550336,101
599617020089235840,84
599617020096921216,74
599617020104606720,67
599617020112292224,62
599617020119977600,58
599617020127663104,58
599617020135348480,55
599617020143033984,55
599617020150719392,55
599617020158404864,55
599617020166090368,58
599617020173775744,60
599617020181461248,65
599617020189146624,65
599617020196832128,67
599617020204517504,67
599617020212203008,65
599617020219888512,65
599617020227573888,67
599617020235259392,67
599617020242944768,70
599617020250630272,70
599617020258315648,70
599617020266001152,72
599617020273686656,72
599617020281372032,74
599617020289057536,72
599617020296742912,72
599617020304428416,72
599617020312113920,74
599617020319799296,70
599617020327484800,67
599617020335170176,70
599617020342855680,70
599617020350541056,67
599617020358226560,67
599617020365912064,70
599617020373597440,67
599617020381282944,67
599617020388968320,70
599617020396653824,67
599617020404339200,67
599617020412024704,65
599617020419710208,65
599617020427395584,67
599617020435081088,62
599617020442766464,62
599617020450451968,67
599617020458137344,70
599617020465822848,70
599617020473508352,70
599617020481193728,72
599617020488879232,72
599617020496564608,72
599617020504250112,72
599617020511935488,72
599617020519620992,72
599617020527306496,72
599617020534991872,70
599617020542677376,74
599617020550362752,72
599617020558048256,67
599617020565733632,67
599617020573419136,70
599617020581104640,67
599617020588790016,67
599617020596475520,72
599617020604160896,70
599617020611846400,70
599617020619531904,72
599617020627217280,72
599617020634902784,70
599617020642588160,72
599617020650273664,72
599617020657959040,70
599617020665644544,70
599617020673330048,60
599617020681015424,48
599617020688700928,65
599617020696386304,106
599617020704071808,132
599617020711757217,123
599617020719442688,103
599617020727128192,89
599617020734813568,65
599617020742499072,60
599617020750184448,74
599617020757869952,74
599617020765555328,70
599617020773240832,72
599617020780926336,74
599617020788611712,72
599617020796297216,62
599617020803982592,2
599617020811668096,-125
599617020819353472,-99
599617020827038976,309
599617020834724480,901
599617020842409856,1058
599617020850095360,488
599617020857780736,-154
599617020865466240,-239
599617020873151744,-72
599617020880837120,0
599617020888522624,4
599617020896208000,-12
599617020903893504,-7
599617020911578880,16
599617020919264384,21
599617020926949888,24
599617020934635264,36
599617020942320768,43
599617020950006144,45
599617020957691648,53
599617020965377024,58
599617020973062528,60
599617020980748032,65
599617020988433408,70
599617020996118912,72
599617021003804288,74
599617021011489792,82
599617021019175168,87
599617021026860672,91
599617021034546176,94
599617021042231552,99
599617021049917056,101
599617021057602432,106
599617021065287936,108
599617021072973312,108
599617021080658816,106
599617021088344320,101
599617021096029696,94
599617021103715200,82
599617021111400576,62
599617021119086080,45
599617021126771456,36
599617021134456960,26
599617021142142464,24
599617021149827840,24
599617021157513344,21
599617021165198720,21
599617021172884224,24
599617021180569728,26
599617021188255104,24
599617021195940608,29
599617021203625984,36
599617021211311488,36
599617021218996864,33
599617021226682368,33
599617021234367872,38
599617021242053248,43
599617021249738752,45
599617021257424128,43
599617021265109632,45
599617021272795042,48
599617021280480000,45
599617021288164992,43
599617021295850112,43
599617021303535104,41
599617021311220096,38
599617021318905216,41
599617021326590208,41
599617021334275200,41
599617021341960192,38
599617021349645312,41
599617021357330304,41
599617021365015296,43
599617021372700416,43
599617021380385408,45
599617021388070400,43
599617021395755520,38
599617021403440512,41
599617021411125504,43
599617021418810624,43
599617021426495616,43
599617021434180608,41
599617021441865600,43
599617021449550720,45
599617021457235712,43
599617021464920704,43
599617021472605824,43
599617021480290816,43
599617021487975808,45
599617021495660928,45
599617021503345920,45
599617021511030912,45
599617021518716032,45
599617021526401024,48
599617021534086016,48
599617021541771136,45
599617021549456128,43
599617021557141120,45
599617021564826112,43
599617021572511232,33
599617021580196224,45
599617021587881216,79
599617021595566336,101
599617021603251328,91
599617021610936320,70
599617021618621440,58
599617021626306432,45
599617021633991424,38
599617021641676544,45
599617021649361536,48
599617021657046528,45
599617021664731520,48
599617021672416640,50
599617021680101632,50
599617021687786624,45
599617021695471744,-12
599617021703156736,-125
599617021710841728,-74
599617021718526848,335
599617021726211840,845
599617021733896832,833
599617021741581952,164
599617021749266944,-360
599617021756951936,-270
599617021764636928,-108
599617021772322048,-58
599617021780007040,65
599617021787692032,94
599617021795377152,26
599617021803062144,43
599617021810747136,74
599617021818432256,65
599617021826117248,67
599617021833802349,79
599617021841487872,79
599617021849173376,82
599617021856858752,89
599617021864544256,94
599617021872229632,99
599617021879915136,101
599617021887600512,106
599617021895286016,113
599617021902971520,120
599617021910656896,125
599617021918342400,135
599617021926027776,145
599617021933713280,152
599617021941398656,159
599617021949084160,161
599617021956769664,164
599617021964455040,164
599617021972140544,159
599617021979825920,152
599617021987511424,128
599617021995196928,91
599617022002882304,58
599617022010567808,33
599617022018253184,19
599617022025938688,7
599617022033624064,4
599617022041309568,7
599617022048995072,4
599617022056680448,7
599617022064365952,12
599617022072051328,14
599617022079736832,16
599617022087422208,21
599617022095107712,24
599617022102793216,26
599617022110478592,29
599617022118164096,31
599617022125849472,38
599617022133534976,41
599617022141220352,38
599617022148905856,41
599617022156591360,45
599617022164276736,43
599617022171962240,43
599617022179647616,48
599617022187333120,50
599617022195018496,45
599617022202704000,45
599617022210389504,48
599617022218074880,48
599617022225760384,50
599617022233445760,50
599617022241131264,48
599617022248816640,45
599617022256502144,50
599617022264187648,50
599617022271873024,45
599617022279558528,48
599617022287243904,48
599617022294929408,48
599617022302614912,53
599617022310300288,53
599617022317985792,53
599617022325671168,53
599617022333356672,53
599617022341042048,53
599617022348727552,55
599617022356413056,53
599617022364098432,53
599617022371783936,50
599617022379469312,43
599617022387154816,41
599617022394840174,65
599617022402525696,99
599617022410211200,106
599617022417896576,87
599617022425582080,70
599617022433267456,55
599617022440952960,43
599617022448638336,43
599617022456323840,48
599617022464009344,50
599617022471694720,48
599617022479380224,50
599617022487065600,58
599617022494751104,58
599617022502436480,36
599617022510121984,-38
599617022517807488,-125
599617022525492864,4
599617022533178368,442
599617022540863744,816
599617022548549248,582
599617022556234752,-89
599617022563920128,-362
599617022571605632,-176
599617022579291008,-79
599617022586976512,-21
599617022594661888,99
599617022602347392,79
599617022610032896,24
599617022617718272,62
599617022625403776,79
599617022633089152,60
599617022640774656,72
599617022648460032,82
599617022656145536,77
599617022663831040,82
599617022671516416,91
599617022679201920,91
599617022686887296,94
599617022694572800,103
599617022702258176,111
599617022709943680,116
599617022717629184,125
599617022725314560,135
599617022733000064,140
599617022740685440,145
599617022748370944,152
599617022756056320,161
599617022763741824,169
599617022771427328,166
599617022779112704,161
599617022786798208,154
599617022794483584,142
599617022802169088,113
599617022809854592,77
599617022817539968,43
599617022825225472,24
599617022832910848,16
599617022840596352,9
599617022848281728,2
599617022855967232,7
599617022863652736,16
599617022871338112,16
599617022879023616,16
599617022886708992,21
599617022894394496,24
599617022902079872,26
599617022909765376,33
599617022917450880,36
599617022925136256,36
599617022932821760,41
599617022940507136,45
599617022948192640,43
599617022955878003,45
599617022963563520,50
599617022971249024,53
599617022978934400,53
599617022986619904,50
599617022994305280,50
599617023001990784,55
599617023009676160,53
599617023017361664,50
599617023025047168,55
599617023032732544,53
599617023040418048,50
599617023048103424,48
599617023055788928,53
599617023063474304,55
599617023071159808,50
599617023078845312,48
599617023086530688,53
599617023094216192,50
599617023101901568,50
599617023109587072,55
599617023117272576,53
599617023124957952,48
599617023132643456,58
599617023140328832,87
599617023148014336,106
599617023155699712,103
599617023163385216,99
599617023171070720,84
599617023178756096,60
599617023186441600,55
599617023194126976,60
599617023201812480,60
599617023209497856,60
599617023217183360,62
599617023224868864,60
599617023232554240,60
599617023240239744,62
599617023247925120,55
599617023255610624,2
599617023263296000,-89
599617023270981504,-33
599617023278667008,323
599617023286352384,713
599617023294037888,616
599617023301723264,38
599617023309408768,-304
599617023317094144,-174
599617023324779648,-43
599617023332465152,2
599617023340150528,91
599617023347836032,94
599617023355521408,48
599617023363206912,65
599617023370892288,84
599617023378577792,77
599617023386263296,77
599617023393948672,87
599617023401634176,89
599617023409319552,89
599617023417005056,94
599617023424690560,99
599617023432375936,101
599617023440061440,103
599617023447746816,108
599617023455432320,113
599617023463117696,118
599617023470803200,125
599617023478488704,132
599617023486174080,137
599617023493859584,140
599617023501544960,147
599617023509230464,152
599617023516915828,152
599617023524601344,149
599617023532286848,142
599617023539972224,123
599617023547657728,96
599617023555343104,70
599617023563028608,41
599617023570713984,21
599617023578399488,16
599617023586084992,12
599617023593770368,7
599617023601455872,12
599617023609141248,14
599617023616826752,14
599617023624512128,14
599617023632197632,24
599617023639883136,24
599617023647568512,19
599617023655254016,24
599617023662939392,33
599617023670624896,33
599617023678310400,29
599617023685995776,33
599617023693681280,41
599617023701366656,38
599617023709052160,36
599617023716737536,45
599617023724423040,45
599617023732108544,38
599617023739793920,41
599617023747479424,45
599617023755164800,43
599617023762850304,45
599617023770535680,45
599617023778221184,43
599617023785906688,45
599617023793592064,48
599617023801277568,48
599617023808962944,50
599617023816648448,48
599617023824333824,41
599617023832019328,43
599617023839704832,53
599617023847390208,48
599617023855075712,45
599617023862761088,70
599617023870446592,94
599617023878131968,84
599617023885817472,74
599617023893502976,70
599617023901188352,45
599617023908873856,31
599617023916559232,41
599617023924244736,48
599617023931930112,45
599617023939615616,45
599617023947301120,41
599617023954986496,41
599617023962672000,45
599617023970357376,38
599617023978042880,-9
599617023985728384,-91
599617023993413760,-53
599617024001099264,253
599617024008784640,601
599617024016470144,536
599617024024155520,41
599617024031841024,-275
599617024039526528,-176
599617024047211904,-50
599617024054897408,2
599617024062582784,70
599617024070268288,67
599617024077953653,33
599617024085639168,50
599617024093324672,65
599617024101010048,58
599617024108695552,60
599617024116380928,67
599617024124066432,65
599617024131751808,62
599617024139437312,74
599617024147122816,77
599617024154808192,72
599617024162493696,79
599617024170179072,84
599617024177864576,87
599617024185549952,96
599617024193235456,103
599617024200920960,106
599617024208606336,111
599617024216291840,118
599617024223977216,123
599617024231662720,123
599617024239348224,123
599617024247033600,123
599617024254719104,113
599617024262404480,96
599617024270089984,70
599617024277775360,45
599617024285460864,24
599617024293146368,9
599617024300831744,7
599617024308517248,7
599617024316202624,2
599617024323888128,2
599617024331573504,7
599617024339259008,14
599617024346944512,16
599617024354629888,14
599617024362315392,14
599617024370000768,16
599617024377686272,21
599617024385371648,24
599617024393057152,26
599617024400742656,26
599617024408428032,26
599617024416113536,26
599617024423798912,31
599617024431484416,31
599617024439169792,29
599617024446855296,33
599617024454540800,36
599617024462226176,33
599617024469911680,33
599617024477597056,36
599617024485282560,36
599617024492967936,36
599617024500653440,38
599617024508338944,36
599617024516024320,31
599617024523709824,36
599617024531395200,38
599617024539080704,36
599617024546766208,36
599617024554451584,38
599617024562137088,38
599617024569822464,36
599617024577507968,38
599617024585193344,41
599617024592878848,38
599617024600564352,38
599617024608249728,41
599617024615935232,41
599617024623620608,38
599617024631306112,50
599617024638991478,74
599617024646676480,74
599617024654361472,67
599617024662046592,67
599617024669731584,53
599617024677416576,31
599617024685101696,31
599617024692786688,38
599617024700471680,36
599617024708156672,33
599617024715841792,41
599617024723526784,41
599617024731211776,38
599617024738896896,43
599617024746581888,31
599617024754266880,-38
599617024761952000,-103
599617024769636992,36
599617024777321984,403
599617024785007104,652
599617024792692096,408
599617024800377088,-94
599617024808062080,-258
599617024815747200,-108
599617024823432192,-21
599617024831117184,21
599617024838802304,62
599617024846487296,43
599617024854172288,31
599617024861857408,55
599617024869542400,58
599617024877227392,50
599617024884912512,60
599617024892597504,67
599617024900282496,65
599617024907967616,70
599617024915652608,77
599617024923337600,77
599617024931022592,79
599617024938707712,84
599617024946392704,87
599617024954077696,91
599617024961762816,96
599617024969447808,101
599617024977132800,106
599617024984817920,111
599617024992502912,118
599617025000187904,123
599617025007873024,123
599617025015558016,123
599617025023243008,118
599617025030928000,111
599617025038613120,101
599617025046298112,77
599617025053983104,48
599617025061668224,31
599617025069353216,21
599617025077038208,12
599617025084723328,9
599617025092408320,4
599617025100093312,7
599617025107778432,12
599617025115463424,14
599617025123148416,16
599617025130833408,16
599617025138518528,16
599617025146203520,21
599617025153888512,24
599617025161573632,21
599617025169258624,24
599617025176943616,29
599617025184628736,29
599617025192313728,31
599617025199998785,33
599617025207684352,33
599617025215369856,36
599617025223055232,33
599617025230740736,29
599617025238426112,33
599617025246111616,38
599617025253796992,33
599617025261482496,31
599617025269168000,31
599617025276853376,36
599617025284538880,33
599617025292224256,31
599617025299909760,33
599617025307595136,33
599617025315280640,31
599617025322966144,31
599617025330651520,31
599617025338337024,36
599617025346022400,31
599617025353707904,26
599617025361393408,31
599617025369078784,36
599617025376764288,36
599617025384449664,36
599617025392135168,38
599617025399820544,45
599617025407506048,43
599617025415191552,38
599617025422876928,41
599617025430562432,43
599617025438247808,43
599617025445933312,41
599617025453618688,41
599617025461304192,43
599617025468989696,41
599617025476675072,41
599617025484360576,43
599617025492045952,41
599617025499731456,41
599617025507416832,41
599617025515102336,41
599617025522787840,41
599617025530473216,38
599617025538158720,38
599617025545844096,38
599617025553529600,38
599617025561214976,38
599617025568900480,38
599617025576585984,38
599617025584271360,38
599617025591956864,38
599617025599642240,38
599617025607327744,38
599617025615013120,36
599617025622698624,38
599617025630384128,38
599617025638069504,36
599617025645755008,36
599617025653440384,38
599617025661125888,41
599617025668811392,36
599617025676496768,36
599617025684182272,38
599617025691867648,38
599617025699553152,38
599617025707238528,36
599617025714924032,38
599617025722609536,38
599617025730294912,36
599617025737980416,33
599617025745665792,31
599617025753351296,24
599617025761036610,29
599617025768722176,53
599617025776407680,74
599617025784093056,67
599617025791778560,48
599617025799463936,41
599617025807149440,24
599617025814834816,12
599617025822520320,19
599617025830205824,21
599617025837891200,16
599617025845576704,19
599617025853262080,24
599617025860947584,24
599617025868632960,21
599617025876318464,-9
599617025884003968,-101
599617025891689344,-137
599617025899374848,99
599617025907060224,553
599617025914745728,761
599617025922431232,379
599617025930116608,-169
599617025937802112,-270
599617025945487488,-113
599617025953172992,-55
599617025960858368,-19
599617025968543872,12
599617025976229376,-12
599617025983914752,-16
599617025991600256,9
599617025999285632,12
599617026006971136,7
599617026014656512,16
599617026022342016,21
599617026030027520,21
599617026037712896,24
599617026045398400,26
599617026053083776,29
599617026060769280,29
599617026068454656,24
599617026076140160,21
599617026083825664,26
599617026091511040,33
599617026099196544,41
599617026106881920,45
599617026114567424,50
599617026122252800,53
599617026129938304,58
599617026137623808,62
599617026145309184,58
599617026152994688,53
599617026160680064,55
599617026168365568,50
599617026176051072,45
599617026183736448,31
599617026191421952,14
599617026199107328,7
599617026206792832,2
599617026214478208,-7
599617026222163712,-14
599617026229849216,-19
599617026237534592,-21
599617026245220096,-19
599617026252905472,-21
599617026260590976,-24
599617026268276352,-19
599617026275961856,-14
599617026283647360,-16
599617026291332736,-19
599617026299018240,-19
599617026306703616,-19
599617026314389120,-19
599617026322074439,-16
599617026329760000,-14
599617026337445504,-14
599617026345130880,-19
599617026352816384,-16
599617026360501760,-12
599617026368187264,-14
599617026375872640,-16
599617026383558144,-14
599617026391243648,-16
599617026398929024,-19
599617026406614528,-19
599617026414299904,-16
599617026421985408,-16
599617026429670784,-19
599617026437356288,-21
599617026445041792,-24
599617026452727168,-21
599617026460412672,-21
599617026468098048,-21
599617026475783552,-21
599617026483469056,-16
599617026491154432,-19
599617026498839936,-21
599617026506525312,-16
599617026514210816,-14
599617026521896192,-16
599617026529581696,-16
599617026537267200,-14
599617026544952576,-14
599617026552638080,-14
599617026560323456,-12
599617026568008960,-14
599617026575694336,-14
599617026583379840,-12
599617026591065344,-12
599617026598750720,-12
599617026606436224,-9
599617026614121600,-9
599617026621807104,-7
599617026629492480,-7
599617026637177984,-7
599617026644863488,-7
599617026652548864,-7
599617026660234368,-7
599617026667919744,-9
599617026675605248,-7
599617026683290624,-2
599617026690976128,-4
599617026698661632,-14
599617026706347008,-19
599617026714032512,-21
599617026721717888,-21
599617026729403392,-21
599617026737088768,-21
599617026744774272,-24
599617026752459776,-24
599617026760145152,-21
599617026767830656,-24
599617026775516032,-24
599617026783201536,-21
599617026790887040,-21
599617026798572416,-24
599617026806257920,-29
599617026813943296,-33
599617026821628800,-14
599617026829314176,21
599617026836999680,36
599617026844685184,19
599617026852370560,4
599617026860056064,-2
599617026867741440,-19
599617026875426944,-24
599617026883112264,-14
599617026890797568,-12
599617026898482816,-12
599617026906168064,-7
599617026913853312,-7
599617026921538560,-9
599617026929223808,-12
599617026936909056,-60
599617026944594304,-174
599617026952279552,-159
599617026959964672,193
599617026967649920,700
599617026975335168,800
599617026983020416,261
599617026990705664,-282
599617026998390912,-290
599617027006076160,-120
599617027013761408,-67
599617027021446656,-36
599617027029131904,-31
599617027036817152,-45
599617027044502400,-31
599617027052187648,-16
599617027059872896,-16
599617027067558144,-7
599617027075243392,2
599617027082928640,2
599617027090613888,7
599617027098299008,12
599617027105984256,14
599617027113669504,19
599617027121354752,21
599617027129040000,24
599617027136725248,31
599617027144410496,36
599617027152095744,36
599617027159780992,41
599617027167466240,45
599617027175151488,50
599617027182836736,53
599617027190521984,55
599617027198207232,60
599617027205892480,62
599617027213577728,60
599617027221262976,55
599617027228948096,53
599617027236633344,41
599617027244318592,24
599617027252003840,9
599617027259689088,-2
599617027267374336,-12
599617027275059584,-16
599617027282744832,-19
599617027290430080,-21
599617027298115328,-16
599617027305800576,-14
599617027313485824,-14
599617027321171072,-14
599617027328856320,-12
599617027336541568,-7
599617027344226816,-7
599617027351912064,-4
599617027359597312,-4
599617027367282432,-2
599617027374967680,2
599617027382652928,4
599617027390338176,2
599617027398023424,4
599617027405708672,4
599617027413393920,7
599617027421079168,9
599617027428764416,9
599617027436449664,12
599617027444134832,12
599617027451820416,12
599617027459506048,12
599617027467191680,12
599617027474877440,12
599617027482563072,12
599617027490248704,14
599617027497934336,12
599617027505619968,9
599617027513305728,9
599617027520991360,12
599617027528676992,14
599617027536362624,14
599617027544048256,12
599617027551734016,12
599617027559419648,12
599617027567105280,12
599617027574790912,12
599617027582476672,12
599617027590162304,12
599617027597847936,14
599617027605533568,14
599617027613219200,14
599617027620904960,14
599617027628590592,14
599617027636276224,14
599617027643961856,16
599617027651647488,19
599617027659333248,16
599617027667018880,14
599617027674704512,19
599617027682390144,19
599617027690075776,16
599617027697761536,16
599617027705447168,19
599617027713132800,21
599617027720818432,21
599617027728504064,21
599617027736189824,21
599617027743875456,21
599617027751561088,19
599617027759246720,21
599617027766932480,21
599617027774618112,21
599617027782303744,21
599617027789989376,21
599617027797675008,26
599617027805360768,24
599617027813046400,21
599617027820732032,24
599617027828417664,21
599617027836103296,19
599617027843789056,21
599617027851474688,14
599617027859160320,4
599617027866845952,19
599617027874531584,62
599617027882217344,77
599617027889902976,58
599617027897588608,45
599617027905274240,36
599617027912959872,14
599617027920645632,7
599617027928331264,19
599617027936016896,21
599617027943702528,16
599617027951388288,21
599617027959073920,24
599617027966759552,21
599617027974445184,14
599617027982130816,-38
599617027989816576,-157
599617027997502208,-152
599617028005187914,203
599617028012873472,756
599617028020558976,942
599617028028244352,437
599617028035929856,-181
599617028043615232,-265
599617028051300736,-87
599617028058986112,-29
599617028066671616,-45
599617028074357120,-50
599617028082042496,-36
599617028089728000,-19
599617028097413376,-9
599617028105098880,-2
599617028112784256,2
599617028120469760,9
599617028128155264,16
599617028135840640,19
599617028143526144,21
599617028151211520,26
599617028158897024,31
599617028166582528,33
599617028174267904,36
599617028181953408,38
599617028189638784,43
599617028197324288,45
599617028205009664,48
599617028212695168,50
599617028220380672,53
599617028228066048,55
599617028235751552,60
599617028243436928,62
599617028251122432,62
599617028258807808,62
599617028266493312,60
599617028274178816,55
599617028281864192,48
599617028289549696,38
599617028297235072,24
599617028304920576,12
599617028312605952,2
599617028320291456,-2
599617028327976960,-4
599617028335662336,-4
599617028343347840,-7
599617028351033216,-7
599617028358718720,-4
599617028366404096,-2
599617028374089600,-2
599617028381775104,0
599617028389460480,2
599617028397145984,2
599617028404831360,2
599617028412516864,4
599617028420202240,4
599617028427887744,7
599617028435573248,9
599617028443258624,9
599617028450944128,12
599617028458629504,14
599617028466315008,14
599617028474000512,14
599617028481685888,16
599617028489371392,14
599617028497056768,16
599617028504742272,19
599617028512427648,21
599617028520113152,19
599617028527798656,19
599617028535484032,19
599617028543169536,21
599617028550854912,19
599617028558540416,19
599617028566225739,19
599617028573911296,19
599617028581596800,19
599617028589282176,16
599617028596967680,16
599617028604653056,16
599617028612338560,16
599617028620023936,19
599617028627709440,16
599617028635394944,19
599617028643080320,19
599617028650765824,19
599617028658451200,19
599617028666136704,19
599617028673822080,19
599617028681507584,19
599617028689193088,19
599617028696878464,19
599617028704563968,21
599617028712249344,21
599617028719934848,24
599617028727620352,21
599617028735305728,24
599617028742991232,24
599617028750676608,21
599617028758362112,21
599617028766047488,24
599617028773732992,24
599617028781418496,26
599617028789103872,26
599617028796789376,24
599617028804474752,24
599617028812160256,24
599617028819845632,26
599617028827531136,26
599617028835216640,24
599617028842902016,21
599617028850587520,21
599617028858272896,16
599617028865958400,7
599617028873643776,4
599617028881329280,36
599617028889014784,72
599617028896700160,72
599617028904385664,53
599617028912071040,43
599617028919756544,26
599617028927441920,7
599617028935127424,14
599617028942812928,24
599617028950498304,16
599617028958183808,16
599617028965869184,19
599617028973554688,19
599617028981240064,16
599617028988925568,-7
599617028996611072,-113
599617029004296448,-193
599617029011981952,24
599617029019667328,567
599617029027352832,978
599617029035038336,715
599617029042723712,12
599617029050409216,-316
599617029058094592,-181
599617029065780096,-55
599617029073465472,-36
599617029081150976,-45
599617029088836480,-53
599617029096521856,-33
599617029104207360,-19
599617029111892736,-16
599617029119578240,-9
599617029127263564,-2
599617029134948608,2
599617029142633600,9
599617029150318720,14
599617029158003712,16
599617029165688704,19
599617029173373824,24
599617029181058816,26
599617029188743808,29
599617029196428800,33
599617029204113920,41
599617029211798912,43
599617029219483904,45
599617029227169024,55
599617029234854016,60
599617029242539008,62
599617029250224128,67
599617029257909120,70
599617029265594112,65
599617029273279232,65
599617029280964224,65
599617029288649216,53
599617029296334336,33
599617029304019328,16
599617029311704320,4
599617029319389312,-9
599617029327074432,-19
599617029334759424,-19
599617029342444416,-21
599617029350129536,-24
599617029357814528,-21
599617029365499520,-21
599617029373184640,-16
599617029380869632,-14
599617029388554624,-12
599617029396239744,-12
599617029403924736,-12
599617029411609728,-7
599617029419294720,-4
599617029426979840,-2
599617029434664832,0
599617029442349824,0
599617029450034944,0
599617029457719936,2
599617029465404928,4
599617029473090048,7
599617029480775040,7
599617029488460032,7
599617029496145152,7
599617029503830144,7
599617029511515136,7
599617029519200128,7
599617029526885248,7
599617029534570240,9
599617029542255232,9
599617029549940352,7
599617029557625344,9
599617029565310336,7
599617029572995456,7
599617029580680448,7
599617029588365440,9
599617029596050560,9
599617029603735552,7
599617029611420544,7
599617029619105664,7
599617029626790656,9
599617029634475648,12
599617029642160640,7
599617029649845760,7
599617029657530752,9
599617029665215744,9
599617029672900864,9
599617029680585856,9
599617029688270875,9
599617029695956352,9
599617029703641856,9
599617029711327232,9
599617029719012736,12
599617029726698112,12
599617029734383616,12
599617029742068992,14
599617029749754496,14
599617029757440000,12
599617029765125376,12
599617029772810880,14
599617029780496256,14
599617029788181760,14
599617029795867136,12
599617029803552640,7
599617029811238144,2
599617029818923520,16
599617029826609024,50
599617029834294400,67
599617029841979904,53
599617029849665408,33
599617029857350784,19
599617029865036288,2
599617029872721664,2
599617029880407168,12
599617029888092544,12
599617029895778048,9
599617029903463552,12
599617029911148928,14
599617029918834432,14
599617029926519808,9
599617029934205312,-48
599617029941890688,-161
599617029949576192,-108
599617029957261696,294
599617029964947072,778
599617029972632576,737
599617029980317952,74
599617029988003456,-406
599617029995688832,-290
599617030003374336,-132
599617030011059840,-91
599617030018745216,29
599617030026430720,53
599617030034116096,-16
599617030041801600,2
599617030049486976,36
599617030057172480,19
599617030064857984,19
599617030072543360,36
599617030080228864,36
599617030087914240,33
599617030095599744,45
599617030103285120,53
599617030110970624,53
599617030118656128,58
599617030126341504,62
599617030134027008,67
599617030141712384,74
599617030149397888,79
599617030157083392,87
599617030164768768,94
599617030172454272,101
599617030180139648,108
599617030187825152,111
599617030195510528,116
599617030203196032,120
599617030210881536,116
599617030218566912,106
599617030226252416,91
599617030233937792,65
599617030241623296,31
599617030249308700,4
599617030256994176,-14
599617030264679680,-29
599617030272365056,-33
599617030280050560,-33
599617030287735936,-33
599617030295421440,-33
599617030303106816,-31
599617030310792320,-29
599617030318477824,-24
599617030326163200,-21
599617030333848704,-19
599617030341534080,-12
599617030349219584,-9
599617030356904960,-9
599617030364590464,-2
599617030372275968,2
599617030379961344,2
599617030387646848,2
599617030395332224,7
599617030403017728,9
599617030410703232,12
599617030418388608,9
599617030426074112,9
599617030433759488,12
599617030441444992,9
599617030449130368,9
599617030456815872,12
599617030464501376,12
599617030472186752,12
599617030479872256,9
599617030487557632,9
599617030495243136,14
599617030502928512,12
599617030510614016,7
599617030518299520,9
599617030525984896,14
599617030533670400,16
599617030541355776,14
599617030549041280,14
599617030556726656,14
599617030564412160,14
599617030572097664,14
599617030579783040,14
599617030587468544,16
599617030595153920,16
599617030602839424,16
599617030610524800,16
599617030618210304,19
599617030625895808,19
599617030633581184,16
599617030641266688,16
599617030648952064,21
599617030656637568,14
599617030664322944,12
599617030672008448,38
599617030679693952,67
599617030687379328,60
599617030695064832,43
599617030702750208,31
599617030710435712,14
599617030718121216,2
599617030725806592,12
599617030733492096,21
599617030741177472,14
599617030748862976,14
599617030756548352,19
599617030764233856,19
599617030771919360,16
599617030779604736,-4
599617030787290240,-89
599617030794975616,-152
599617030802661120,48
599617030810346525,502
599617030818032000,751
599617030825717504,367
599617030833402880,-251
599617030841088384,-360
599617030848773760,-157
599617030856459264,-96
599617030864144640,-12
599617030871830144,82
599617030879515648,36
599617030887201024,9
599617030894886528,53
599617030902571904,53
599617030910257408,38
599617030917942784,50
599617030925628288,58
599617030933313792,58
599617030940999168,65
599617030948684672,74
599617030956370048,79
599617030964055552,82
599617030971741056,89
599617030979426432,99
599617030987111936,99
599617030994797312,101
599617031002482816,113
599617031010168192,120
599617031017853696,123
599617031025539200,132
599617031033224576,137
599617031040910080,135
599617031048595456,135
599617031056280960,137
599617031063966336,130
599617031071651840,116
599617031079337344,96
599617031087022720,65
599617031094708224,31
599617031102393600,12
599617031110079104,4
599617031117764480,0
599617031125449984,2
599617031133135488,19
599617031140820864,33
599617031148506368,38
599617031156191744,43
599617031163877248,45
599617031171562624,43
599617031179248128,45
599617031186933632,53
599617031194619008,53
599617031202304512,50
599617031209989888,55
599617031217675392,60
599617031225360768,58
599617031233046272,58
599617031240731776,62
599617031248417152,60
599617031256102656,58
599617031263788032,58
599617031271473536,55
599617031279159040,58
599617031286844416,60
599617031294529920,58
599617031302215296,53
599617031309900800,53
599617031317586176,55
599617031325271680,53
599617031332957184,58
599617031340642560,60
599617031348328064,60
599617031356013440,58
599617031363698944,60
599617031371384350,60
599617031379069824,58
599617031386755328,58
599617031394440704,55
599617031402126208,58
599617031409811584,58
599617031417497088,55
599617031425182464,55
599617031432867968,53
599617031440553472,50
599617031448238848,48
599617031455924352,62
599617031463609728,91
599617031471295232,94
599617031478980608,77
599617031486666112,72
599617031494351616,60
599617031502036992,36
599617031509722496,33
599617031517407872,45
599617031525093376,45
599617031532778880,41
599617031540464256,38
599617031548149760,43
599617031555835136,43
599617031563520640,33
599617031571206016,-4
599617031578891520,-82
599617031586577024,-72
599617031594262400,212
599617031601947904,601
599617031609633280,604
599617031617318784,91
599617031625004160,-306
599617031632689664,-217
599617031640375168,-65
599617031648060544,-24
599617031655746048,67
599617031663431424,89
599617031671116928,31
599617031678802304,43
599617031686487808,72
599617031694173312,58
599617031701858688,53
599617031709544192,62
599617031717229568,65
599617031724915072,65
599617031732600448,70
599617031740285952,74
599617031747971456,77
599617031755656832,79
599617031763342336,84
599617031771027712,89
599617031778713216,89
599617031786398592,99
599617031794084096,108
599617031801769600,106
599617031809454976,108
599617031817140480,118
599617031824825856,123
599617031832511360,120
599617031840196864,123
599617031847882240,128
599617031855567744,120
599617031863253120,96
599617031870938624,72
599617031878624000,45
599617031886309504,21
599617031893995008,7
599617031901680384,7
599617031909365888,4
599617031917051264,2
599617031924736768,4
599617031932422175,4
599617031940107648,4
599617031947793152,9
599617031955478528,9
599617031963164032,2
599617031970849408,0
599617031978534912,-4
599617031986220288,-9
599617031993905792,-12
599617032001591296,-12
599617032009276672,-12
599617032016962176,-12
599617032024647552,-7
599617032032333056,-2
599617032040018432,-4
599617032047703936,2
599617032055389440,7
599617032063074816,9
599617032070760320,12
599617032078445696,16
599617032086131200,16
599617032093816704,16
599617032101502080,19
599617032109187584,19
599617032116872960,19
599617032124558464,21
599617032132243840,21
599617032139929344,19
599617032147614848,24
599617032155300224,19
599617032162985728,12
599617032170671104,16
599617032178356608,21
599617032186041984,24
599617032193727488,45
599617032201412992,58
599617032209098368,45
599617032216783872,41
599617032224469248,36
599617032232154752,16
599617032239840128,7
599617032247525632,14
599617032255211136,16
599617032262896512,16
599617032270582016,19
599617032278267392,19
599617032285952896,19
599617032293638272,24
599617032301323776,16
599617032309009280,-31
599617032316694656,-106
599617032324380160,-48
599617032332065536,253
599617032339751040,555
599617032347436416,432
599617032355121920,-48
599617032362807424,-290
599617032370492800,-161
599617032378178304,-58
599617032385863680,-12
599617032393549184,58
599617032401234688,53
599617032408920064,21
599617032416605568,38
599617032424290944,50
599617032431976448,45
599617032439661824,45
599617032447347328,53
599617032455032832,58
599617032462718208,58
599617032470403712,62
599617032478089088,65
599617032485774592,67
599617032493460000,72
599617032501145472,72
599617032508830976,77
599617032516516352,84
599617032524201856,89
599617032531887232,94
599617032539572736,103
599617032547258112,108
599617032554943616,111
599617032562629120,113
599617032570314496,113
599617032578000000,111
599617032585685376,106
599617032593370880,94
599617032601056256,70
599617032608741760,38
599617032616427264,16
599617032624112640,2
599617032631798144,-2
599617032639483520,-9
599617032647169024,-9
599617032654854528,-9
599617032662539904,-12
599617032670225408,-7
599617032677910784,-2
599617032685596288,0
599617032693281664,2
599617032700967168,0
599617032708652672,0
599617032716338048,4
599617032724023552,4
599617032731708928,2
599617032739394432,7
599617032747079808,9
599617032754765312,4
599617032762450816,4
599617032770136192,12
599617032777821696,9
599617032785507072,0
599617032793192576,2
599617032800877952,7
599617032808563456,7
599617032816248960,7
599617032823934336,9
599617032831619840,7
599617032839305216,9
599617032846990720,12
599617032854676096,7
599617032862361600,7
599617032870047104,9
599617032877732480,7
599617032885417984,7
599617032893103360,9
599617032900788864,7
599617032908474368,9
599617032916159744,9
599617032923845248,9
599617032931530624,9
599617032939216128,9
599617032946901504,9
599617032954587008,9
599617032962272512,9
599617032969957888,9
599617032977643392,9
599617032985328768,24
599617032993014272,50
599617033000699648,50
599617033008385152,41
599617033016070656,38
599617033023756032,24
599617033031441536,0
599617033039126912,2
599617033046812416,14
599617033054497829,9
599617033062183296,4
599617033069868800,12
599617033077554176,12
599617033085239680,7
599617033092925056,9
599617033100610560,-14
599617033108295936,-89
599617033115981440,-128
599617033123666944,60
599617033131352320,447
599617033139037824,611
599617033146723200,251
599617033154408704,-227
599617033162094080,-273
599617033169779584,-108
599617033177465088,-53
599617033185150464,0
599617033192835968,38
599617033200521344,4
599617033208206848,0
599617033215892352,29
599617033223577728,24
599617033231263232,19
599617033238948608,29
599617033246634112,31
599617033254319488,33
599617033262004992,38
599617033269690496,38
599617033277375872,43
599617033285061376,45
599617033292746752,48
599617033300432256,53
599617033308117632,58
599617033315803136,60
599617033323488640,65
599617033331174016,72
599617033338859520,79
599617033346544896,89
599617033354230400,99
599617033361915776,101
599617033369601280,106
599617033377286784,101
599617033384972160,91
599617033392657664,79
599617033400343040,62
599617033408028544,38
599617033415713920,19
599617033423399424,7
599617033431084928,2
599617033438770304,-2
599617033446455808,-7
599617033454141184,-4
599617033461826688,-2
599617033469512064,0
599617033477197568,0
599617033484883072,2
599617033492568448,9
599617033500253952,7
599617033507939328,7
599617033515624832,9
599617033523310336,9
599617033530995712,7
599617033538681216,9
599617033546366592,9
599617033554052096,12
599617033561737472,12
599617033569422976,12
599617033577108480,12
599617033584793856,14
599617033592479360,12
599617033600164736,7
599617033607850240,4
599617033615535654,7
599617033623221120,7
599617033630906624,7
599617033638592000,7
599617033646277504,7
599617033653962880,7
599617033661648384,7
599617033669333760,7
599617033677019264,7
599617033684704768,7
599617033692390144,4
599617033700075648,2
599617033707761024,4
599617033715446528,4
599617033723131904,2
599617033730817408,2
599617033738502912,4
599617033746188288,0
599617033753873792,-2
599617033761559168,0
599617033769244672,0
599617033776930176,-2
599617033784615552,-2
599617033792301056,0
599617033799986432,-2
599617033807671936,-2
599617033815357312,-2
599617033823042816,-2
599617033830728320,0
599617033838413696,-2
599617033846099200,-2
599617033853784576,-2
599617033861470080,-2
599617033869155456,-2
599617033876840960,-4
599617033884526464,-7
599617033892211840,-7
599617033899897344,-4
599617033907582720,-4
599617033915268224,-7
599617033922953600,-7
599617033930639104,-4
599617033938324608,-7
599617033946009984,-9
599617033953695488,-7
599617033961380864,-9
599617033969066368,-12
599617033976751744,-9
599617033984437248,-9
599617033992122752,-12
599617033999808128,-14
599617034007493632,-12
599617034015179008,-19
599617034022864512,-21
599617034030549888,2
599617034038235392,26
599617034045920896,24
599617034053606272,12
599617034061291776,2
599617034068977152,-12
599617034076662656,-26
599617034084348160,-26
599617034092033536,-14
599617034099719040,-16
599617034107404416,-16
599617034115089920,-14
599617034122775296,-14
599617034130460800,-14
599617034138146304,-33
599617034145831680,-108
599617034153517184,-186
599617034161202560,-48
599617034168888064,379
599617034176573479,720
599617034184258944,493
599617034191944448,-101
599617034199629824,-345
599617034207315328,-203
599617034215000704,-106
599617034222686208,-67
599617034230371584,-26
599617034238057088,-43
599617034245742592,-53
599617034253427968,-29
599617034261113472,-26
599617034268798848,-29
599617034276484352,-19
599617034284169728,-14
599617034291855232,-16
599617034299540736,-12
599617034307226112,-7
599617034314911616,-4
599617034322596992,0
599617034330282496,4
599617034337968000,4
599617034345653376,7
599617034353338880,9
599617034361024256,12
599617034368709760,12
599617034376395136,16
599617034384080640,21
599617034391766144,31
599617034399451520,38
599617034407137024,43
599617034414822400,43
599617034422507904,38
599617034430193280,36
599617034437878784,31
599617034445564288,16
599617034453249664,0
599617034460935168,-16
599617034468620544,-29
599617034476306048,-33
599617034483991424,-36
599617034491676928,-41
599617034499362432,-43
599617034507047808,-38
599617034514733312,-36
599617034522418688,-36
599617034530104192,-33
599617034537789568,-31
599617034545475072,-29
599617034553160576,-29
599617034560845952,-29
599617034568531456,-29
599617034576216832,-26
599617034583902336,-29
599617034591587712,-26
599617034599273216,-26
599617034606958720,-26
599617034614644096,-26
599617034622329600,-26
599617034630014976,-26
599617034637700480,-24
599617034645385984,-24
599617034653071360,-24
599617034660756864,-26
599617034668442240,-26
599617034676127744,-24
599617034683813120,-24
599617034691498624,-24
599617034699184128,-26
599617034706869504,-24
599617034714555008,-26
599617034722240384,-29
599617034729925888,-26
599617034737611304,-26
599617034745296768,-26
599617034752982272,-24
599617034760667648,-21
599617034768353152,-24
599617034776038528,-26
599617034783724032,-26
599617034791409408,-26
599617034799094912,-24
599617034806780416,-21
599617034814465792,-21
599617034822151296,-21
599617034829836672,-21
599617034837522176,-16
599617034845207552,-16
599617034852893056,-14
599617034860578560,-16
599617034868263936,-16
599617034875949440,-14
599617034883634816,-14
599617034891320320,-14
599617034899005824,-14
599617034906691200,-16
599617034914376704,-16
599617034922062080,-14
599617034929747584,-12
599617034937432960,-14
599617034945118464,-12
599617034952803968,-9
599617034960489344,-7
599617034968174848,-4
599617034975860224,-4
599617034983545728,-4
599617034991231104,-2
599617034998916608,-2
599617035006602112,-4
599617035014287488,-2
599617035021972992,-2
599617035029658368,0
599617035037343872,-2
599617035045029248,-2
599617035052714752,-2
599617035060400256,-2
599617035068085632,-2
599617035075771136,-2
599617035083456512,-9
599617035091142016,-16
599617035098827392,-4
599617035106512896,24
599617035114198400,45
599617035121883776,38
599617035129569280,26
599617035137254656,14
599617035144940160,-7
599617035152625536,-14
599617035160311040,-4
599617035167996544,-2
599617035175681920,-7
599617035183367424,-4
599617035191052800,-2
599617035198738304,-4
599617035206423808,-4
599617035214109184,-41
599617035221794688,-149
599617035229480064,-188
599617035237165568,84
599617035244850944,594
599617035252536448,838
599617035260221952,425
599617035267907328,-186
599617035275592832,-311
599617035283278208,-137
599617035290963712,-60
599617035298649129,-45
599617035306334592,-38
599617035314020096,-45
599617035321705472,-36
599617035329390976,-21
599617035337076352,-21
599617035344761856,-16
599617035352447232,-9
599617035360132736,-7
599617035367818240,-4
599617035375503616,-2
599617035383189120,2
599617035390874496,7
599617035398560000,9
599617035406245376,12
599617035413930880,14
599617035421616384,19
599617035429301760,21
599617035436987264,24
599617035444672640,29
599617035452358144,31
599617035460043648,33
599617035467729024,38
599617035475414528,41
599617035483099904,41
599617035490785408,41
599617035498470784,38
599617035506156288,38
599617035513841792,33
599617035521527168,21
599617035529212672,7
599617035536898048,-2
599617035544583552,-9
599617035552268928,-16
599617035559954432,-24
599617035567639936,-26
599617035575325312,-24
599617035583010816,-24
599617035590696192,-24
599617035598381696,-21
599617035606067072,-19
599617035613752576,-19
599617035621438080,-16
599617035629123456,-14
599617035636808960,-14
599617035644494336,-14
599617035652179840,-12
599617035659865216,-12
599617035667550720,-12
599617035675236224,-7
599617035682921600,-7
599617035690607104,-7
599617035698292480,-7
599617035705977984,-7
599617035713663360,-4
599617035721348864,-4
599617035729034368,-2
599617035736719744,-4
599617035744405248,-4
599617035752090624,0
599617035759776128,-2
599617035767461632,-4
599617035775147008,-2
599617035782832512,0
599617035790517888,-2
599617035798203392,-2
599617035805888768,-2
599617035813574272,0
599617035821259776,0
599617035828945152,0
599617035836630656,2
599617035844316032,2
599617035852001536,2
599617035859686954,0
599617035867372416,0
599617035875057920,2
599617035882743296,4
599617035890428800,2
599617035898114176,2
599617035905799680,2
599617035913485056,2
599617035921170560,2
599617035928856064,2
599617035936541440,4
599617035944226944,4
599617035951912320,4
599617035959597824,4
599617035967283200,7
599617035974968704,9
599617035982654208,7
599617035990339584,7
599617035998025088,9
599617036005710464,7
599617036013395968,4
599617036021081472,4
599617036028766848,4
599617036036452352,4
599617036044137728,4
599617036051823232,7
599617036059508608,7
599617036067194112,4
599617036074879616,4
599617036082564992,7
599617036090250496,7
599617036097935872,7
599617036105621376,7
599617036113306752,7
599617036120992256,7
599617036128677760,4
599617036136363136,4
599617036144048640,2
599617036151734016,-4
599617036159419520,-4
599617036167104896,26
599617036174790400,55
599617036182475904,53
599617036190161280,38
599617036197846784,29
599617036205532160,9
599617036213217664,-7
599617036220903040,2
599617036228588544,12
599617036236274048,2
599617036243959424,0
599617036251644928,7
599617036259330304,7
599617036267015808,7
599617036274701312,-16
599617036282386688,-116
599617036290072192,-203
599617036297757568,-12
599617036305443072,502
599617036313128448,923
599617036320813952,698
599617036328499456,24
599617036336184832,-309
599617036343870336,-171
599617036351555712,-41
599617036359241216,-41
599617036366926592,-53
599617036374612096,-48
599617036382297600,-31
599617036389982976,-21
599617036397668480,-16
599617036405353856,-7
599617036413039360,2
599617036420724783,4
599617036428410240,9
599617036436095744,12
599617036443781120,16
599617036451466624,21
599617036459152000,24
599617036466837504,29
599617036474522880,29
599617036482208384,31
599617036489893888,36
599617036497579264,38
599617036505264768,38
599617036512950144,38
599617036520635648,45
599617036528321024,50
599617036536006528,50
599617036543692032,50
599617036551377408,50
599617036559062912,48
599617036566748288,48
599617036574433792,45
599617036582119296,36
599617036589804672,21
599617036597490176,9
599617036605175552,0
599617036612861056,-7
599617036620546432,-9
599617036628231936,-14
599617036635917440,-16
599617036643602816,-16
599617036651288320,-12
599617036658973696,-12
599617036666659200,-12
599617036674344576,-9
599617036682030080,-9
599617036689715584,-7
599617036697400960,-4
599617036705086464,-2
599617036712771840,-2
599617036720457344,-2
599617036728142720,0
599617036735828224,0
599617036743513728,0
599617036751199104,2
599617036758884608,4
599617036766569984,4
599617036774255488,4
599617036781940864,7
599617036789626368,9
599617036797311872,9
599617036804997248,7
599617036812682752,7
599617036820368128,9
599617036828053632,9
599617036835739008,9
599617036843424512,9
599617036851110016,9
599617036858795392,12
599617036866480896,9
599617036874166272,9
599617036881851776,12
599617036889537280,14
599617036897222656,12
599617036904908160,12
599617036912593536,14
599617036920279040,12
599617036927964416,9
599617036935649920,12
599617036943335424,12
599617036951020800,9
599617036958706304,7
599617036966391680,9
599617036974077184,12
599617036981762608,9
599617036989448064,7
599617036997133568,9
599617037004818944,12
599617037012504448,12
599617037020189824,9
599617037027875328,9
599617037035560704,9
599617037043246208,7
599617037050931712,7
599617037058617088,4
599617037066302592,7
599617037073987968,9
599617037081673472,7
599617037089358848,7
599617037097044352,7
599617037104729856,7
599617037112415232,7
599617037120100736,7
599617037127786112,4
599617037135471616,4
599617037143157120,2
599617037150842496,-4
599617037158528000,-2
599617037166213376,21
599617037173898880,53
599617037181584256,55
599617037189269760,36
599617037196955264,19
599617037204640640,0
599617037212326144,-9
599617037220011520,-2
599617037227697024,2
599617037235382400,2
599617037243067904,2
599617037250753408,2
599617037258438784,4
599617037266124288,2
599617037273809664,-38
599617037281495168,-147
599617037289180544,-178
599617037296866048,116
599617037304551552,650
599617037312236928,882
599617037319922432,401
599617037327607808,-258
599617037335293312,-360
599617037342978688,-169
599617037350664192,-96
599617037358349696,-29
599617037366035072,7
599617037373720576,-36
599617037381405952,-31
599617037389091456,2
599617037396776832,-2
599617037404462336,-2
599617037412147840,9
599617037419833216,9
599617037427518720,7
599617037435204096,16
599617037442889600,21
599617037450575104,19
599617037458260480,24
599617037465945984,33
599617037473631360,36
599617037481316864,38
599617037489002240,45
599617037496687744,50
599617037504373248,55
599617037512058624,65
599617037519744128,70
599617037527429504,74
599617037535115008,79
599617037542800433,82
599617037550485888,82
599617037558171392,77
599617037565856768,70
599617037573542272,60
599617037581227648,33
599617037588913152,4
599617037596598528,-14
599617037604284032,-26
599617037611969536,-38
599617037619654912,-48
599617037627340416,-48
599617037635025792,-45
599617037642711296,-43
599617037650396672,-41
599617037658082176,-36
599617037665767680,-33
599617037673453056,-31
599617037681138560,-29
599617037688823936,-26
599617037696509440,-24
599617037704194944,-19
599617037711880320,-14
599617037719565824,-12
599617037727251200,-9
599617037734936704,-9
599617037742622080,-9
599617037750307584,-7
599617037757993088,-7
599617037765678464,-4
599617037773363968,-4
599617037781049344,-4
599617037788734848,0
599617037796420224,0
599617037804105728,-2
599617037811791232,-2
599617037819476608,0
599617037827162112,0
599617037834847488,-4
599617037842532992,-2
599617037850218368,2
599617037857903872,-2
599617037865589376,-2
599617037873274752,4
599617037880960256,4
599617037888645632,2
599617037896331136,0
599617037904016512,2
599617037911702016,4
599617037919387520,4
599617037927072896,7
599617037934758400,7
599617037942443776,4
599617037950129280,7
599617037957814656,9
599617037965500160,7
599617037973185664,9
599617037980871040,9
599617037988556544,9
599617037996241920,9
599617038003927424,12
599617038011612928,16
599617038019298304,12
599617038026983808,4
599617038034669184,16
599617038042354688,48
599617038050040064,65
599617038057725568,53
599617038065411072,36
599617038073096448,24
599617038080781952,4
599617038088467328,2
599617038096152832,14
599617038103838258,12
599617038111523712,7
599617038119209216,12
599617038126894592,19
599617038134580096,19
599617038142265472,14
599617038149950976,-24
599617038157636352,-120
599617038165321856,-123
599617038173007360,193
599617038180692736,662
599617038188378240,727
599617038196063616,166
599617038203749120,-348
599617038211434496,-287
599617038219120000,-111
599617038226805504,-74
599617038234490880,36
599617038242176384,91
599617038249861760,26
599617038257547264,24
599617038265232768,62
599617038272918144,53
599617038280603648,43
599617038288289024,62
599617038295974528,70
599617038303659904,67
599617038311345408,74
599617038319030912,77
599617038326716288,79
599617038334401792,87
599617038342087168,91
599617038349772672,94
599617038357458048,99
599617038365143552,108
599617038372829056,113
599617038380514432,120
599617038388199936,128
599617038395885312,135
599617038403570816,140
599617038411256192,140
599617038418941696,142
599617038426627200,145
599617038434312576,135
599617038441998080,116
599617038449683456,89
599617038457368960,60
599617038465054336,29
599617038472739840,7
599617038480425344,0
599617038488110720,-7
599617038495796224,-16
599617038503481600,-12
599617038511167104,-4
599617038518852480,-7
599617038526537984,-4
599617038534223488,2
599617038541908864,4
599617038549594368,4
599617038557279744,12
599617038564965248,21
599617038572650752,24
599617038580336128,26
599617038588021632,31
599617038595707008,29
599617038603392512,24
599617038611077888,29
599617038618763392,36
599617038626448896,33
599617038634134272,31
599617038641819776,33
599617038649505152,38
599617038657190656,38
599617038664876083,36
599617038672561536,36
599617038680247040,43
599617038687932416,45
599617038695617920,43
599617038703303296,45
599617038710988800,45
599617038718674176,45
599617038726359680,48
599617038734045184,48
599617038741730560,43
599617038749416064,43
599617038757101440,45
599617038764786944,43
599617038772472320,41
599617038780157824,43
599617038787843328,41
599617038795528704,38
599617038803214208,41
599617038810899584,41
599617038818585088,36
599617038826270592,33
599617038833955968,26
599617038841641472,9
599617038849326848,12
599617038857012352,41
599617038864697728,60
599617038872383232,55
599617038880068736,43
599617038887754112,36
599617038895439616,16
599617038903124992,7
599617038910810496,14
599617038918495872,19
599617038926181376,12
599617038933866880,14
599617038941552256,24
599617038949237760,21
599617038956923136,14
599617038964608640,9
599617038972294016,-43
599617038979979520,-128
599617038987665024,-41
599617038995350400,321
599617039003035904,645
599617039010721280,461
599617039018406784,-103
599617039026092160,-335
599617039033777664,-161
599617039041463168,-65
599617039049148544,-9
599617039056834048,96
599617039064519424,82
599617039072204928,36
599617039079890304,72
599617039087575808,89
599617039095261312,65
599617039102946688,72
599617039110632192,91
599617039118317568,84
599617039126003072,79
599617039133688576,94
599617039141373952,101
599617039149059456,96
599617039156744832,99
599617039164430336,106
599617039172115712,108
599617039179801216,113
599617039187486720,120
599617039195172096,128
599617039202857600,130
599617039210542976,130
599617039218228480,137
599617039225913908,147
599617039233599360,147
599617039241284864,145
599617039248970240,142
599617039256655744,128
599617039264341120,113
599617039272026624,89
599617039279712000,55
599617039287397504,33
599617039295083008,26
599617039302768384,12
599617039310453888,12
599617039318139264,26
599617039325824768,41
599617039333510144,43
599617039341195648,48
599617039348881152,60
599617039356566528,70
599617039364252032,77
599617039371937408,82
599617039379622912,89
599617039387308416,99
599617039394993792,106
599617039402679296,108
599617039410364672,111
599617039418050176,116
599617039425735552,118
599617039433421056,118
599617039441106560,118
599617039448791936,120
599617039456477440,125
599617039464162816,128
599617039471848320,125
599617039479533696,116
599617039487219200,111
599617039494904704,108
599617039502590080,103
599617039510275584,101
599617039517960960,101
599617039525646464,101
599617039533331840,99
599617039541017344,94
599617039548702848,87
599617039556388224,91
599617039564073728,96
599617039571759104,87
599617039579444608,79
599617039587129984,82
599617039594815488,82
599617039602500992,96
599617039610186368,116
599617039617871872,113
599617039625557248,113
599617039633242752,103
599617039640928256,84
599617039648613632,79
599617039656299136,84
599617039663984512,82
599617039671670016,84
599617039679355392,89
599617039687040896,84
599617039694726400,84
599617039702411776,89
599617039710097280,74
599617039717782656,29
599617039725468160,-33
599617039733153536,-4
599617039740839040,244
599617039748524544,541
599617039756209920,488
599617039763895424,70
599617039771580800,-190
599617039779266304,-99
599617039786951737,14
599617039794637184,60
599617039802322688,128
599617039810008064,128
599617039817693568,89
599617039825378944,111
599617039833064448,120
599617039840749824,101
599617039848435328,113
599617039856120832,130
599617039863806208,123
599617039871491712,118
599617039879177088,130
599617039886862592,135
599617039894547968,132
599617039902233472,132
599617039909918976,137
599617039917604352,145
599617039925289856,152
599617039932975232,149
599617039940660736,154
599617039948346240,169
599617039956031616,178
599617039963717120,188
599617039971402496,190
599617039979088000,188
599617039986773376,198
599617039994458880,200
599617040002144384,190
599617040009829760,181
599617040017515264,157
599617040025200640,128
599617040032886144,120
599617040040571520,125
599617040048257024,125
599617040055942528,125
599617040063627904,128
599617040071313408,125
599617040078998784,118
599617040086684288,123
599617040094369664,132
599617040102055168,123
599617040109740672,106
599617040117426048,103
599617040125111552,106
599617040132796928,103
599617040140482432,101
599617040148167808,108
599617040155853312,116
599617040163538816,118
599617040171224192,125
599617040178909696,132
599617040186595072,132
599617040194280576,137
599617040201965952,145
599617040209651456,149
599617040217336960,157
599617040225022336,159
599617040232707840,161
599617040240393216,161
599617040248078720,152
599617040255764224,145
599617040263449600,159
599617040271135104,190
599617040278820480,195
599617040286505984,169
599617040294191360,164
599617040301876864,178
599617040309562368,178
599617040317247744,171
599617040324933248,186
599617040332618624,205
599617040340304128,203
599617040347989562,198
599617040355675008,200
599617040363360512,188
599617040371045888,171
599617040378731392,174
599617040386416768,178
599617040394102272,171
599617040401787648,171
599617040409473152,171
599617040417158656,171
599617040424844032,174
599617040432529536,166
599617040440214912,152
599617040447900416,103
599617040455585792,53
599617040463271296,152
599617040470956800,430
599617040478642176,601
599617040486327680,391
599617040494013056,19
599617040501698560,-74
599617040509384064,36
599617040517069440,82
599617040524754944,123
599617040532440320,174
599617040540125824,157
599617040547811200,135
599617040555496704,140
599617040563182208,137
599617040570867584,132
599617040578553088,132
599617040586238464,135
599617040593923968,135
599617040601609344,140
599617040609294848,142
599617040616980352,142
599617040624665728,142
599617040632351232,149
599617040640036608,152
599617040647722112,157
599617040655407488,164
599617040663092992,164
599617040670778496,169
599617040678463872,171
599617040686149376,174
599617040693834752,174
599617040701520256,171
599617040709205632,166
599617040716891136,161
599617040724576640,157
599617040732262016,147
599617040739947520,128
599617040747632896,106
599617040755318400,87
599617040763003776,70
599617040770689280,58
599617040778374784,53
599617040786060160,53
599617040793745664,53
599617040801431040,53
599617040809116544,58
599617040816802048,62
599617040824487424,70
599617040832172928,70
599617040839858304,65
599617040847543808,70
599617040855229184,74
599617040862914688,70
599617040870600192,65
599617040878285568,67
599617040885971072,72
599617040893656448,72
599617040901341952,72
599617040909027387,77
599617040916712832,74
599617040924398336,74
599617040932083712,82
599617040939769216,82
599617040947454592,79
599617040955140096,79
599617040962825472,74
599617040970510976,72
599617040978196480,72
599617040985881856,67
599617040993567360,65
599617041001252736,65
599617041008938240,60
599617041016623616,58
599617041024309120,62
599617041031994624,60
599617041039680000,55
599617041047365504,58
599617041055050880,58
599617041062736384,58
599617041070421888,62
599617041078107264,62
599617041085792768,62
599617041093478144,65
599617041101163648,62
599617041108849024,62
599617041116534528,62
599617041124220032,60
599617041131905408,55
599617041139590912,58
599617041147276288,62
599617041154961792,58
599617041162647168,53
599617041170332672,53
599617041178018176,50
599617041185703552,43
599617041193389056,36
599617041201074432,24
599617041208759936,21
599617041216445312,21
599617041224130816,19
599617041231816320,19
599617041239501696,19
599617041247187200,12
599617041254872576,9
599617041262558080,16
599617041270243456,19
599617041277928960,16
599617041285614464,16
599617041293299840,16
599617041300985344,19
599617041308670720,14
599617041316356224,7
599617041324041600,12
599617041331727104,16
599617041339412608,14
599617041347097984,14
599617041354783488,19
599617041362468864,16
599617041370154368,16
599617041377839872,19
599617041385525248,19
599617041393210752,14
599617041400896128,14
599617041408581632,21
599617041416267008,19
599617041423952512,12
599617041431638016,24
599617041439323392,43
599617041447008896,53
599617041454694272,48
599617041462379776,36
599617041470065212,21
599617041477750656,9
599617041485436160,7
599617041493121536,16
599617041500807040,19
599617041508492416,9
599617041516177920,7
599617041523863296,9
599617041531548800,9
599617041539234304,2
599617041546919680,-36
599617041554605184,-111
599617041562290560,-89
599617041569976064,174
599617041577661440,502
599617041585346944,493
599617041593032448,82
599617041600717824,-229
599617041608403328,-174
599617041616088704,-65
599617041623774208,-41
599617041631459712,4
599617041639145088,12
599617041646830592,-19
599617041654515968,-12
599617041662201472,4
599617041669886848,4
599617041677572352,0
599617041685257856,9
599617041692943232,16
599617041700628736,16
599617041708314112,16
599617041715999616,21
599617041723684992,29
599617041731370496,31
599617041739056000,31
599617041746741376,36
599617041754426880,43
599617041762112256,50
599617041769797760,58
599617041777483136,67
599617041785168640,72
599617041792854144,70
599617041800539520,70
599617041808225024,74
599617041815910400,72
599617041823595904,67
599617041831281280,62
599617041838966784,58
599617041846652288,45
599617041854337664,33
599617041862023168,21
599617041869708544,9
599617041877394048,-4
599617041885079424,-9
599617041892764928,-9
599617041900450432,-12
599617041908135808,-16
599617041915821312,-16
599617041923506688,-14
599617041931192192,-14
599617041938877696,-12
599617041946563072,-9
599617041954248576,-16
599617041961933952,-21
599617041969619456,-16
599617041977304832,-14
599617041984990336,-14
599617041992675840,-9
599617042000361216,-7
599617042008046720,-7
599617042015732096,-7
599617042023417600,-9
599617042031103037,-12
599617042038788480,-7
599617042046473984,0
599617042054159360,-2
599617042061844864,-4
599617042069530240,-7
599617042077215744,-7
599617042084901120,-4
599617042092586624,-16
599617042100272128,-33
599617042107957504,-36
599617042115643008,-29
599617042123328384,-29
599617042131013888,-31
599617042138699264,-31
599617042146384768,-31
599617042154070272,-31
599617042161755648,-33
599617042169441152,-33
599617042177126528,-33
599617042184812032,-31
599617042192497536,-31
599617042200182912,-36
599617042207868416,-36
599617042215553792,-31
599617042223239296,-29
599617042230924672,-33
599617042238610176,-36
599617042246295680,-36
599617042253981056,-41
599617042261666560,-38
599617042269351936,-36
599617042277037440,-41
599617042284722816,-41
599617042292408320,-36
599617042300093824,-41
599617042307779200,-48
599617042315464704,-50
599617042323150080,-50
599617042330835584,-48
599617042338520960,-48
599617042346206464,-48
599617042353891968,-48
599617042361577344,-45
599617042369262848,-41
599617042376948224,-41
599617042384633728,-41
599617042392319104,-36
599617042400004608,-26
599617042407690112,-16
599617042415375488,-14
599617042423060992,-19
599617042430746368,-16
599617042438431872,-16
599617042446117248,-21
599617042453802752,-26
599617042461488256,-24
599617042469173632,-21
599617042476859136,-33
599617042484544512,-33
599617042492230016,-9
599617042499915520,7
599617042507600896,-7
599617042515286400,-29
599617042522971776,-38
599617042530657280,-50
599617042538342656,-60
599617042546028160,-48
599617042553713664,-41
599617042561399040,-45
599617042569084544,-45
599617042576769920,-41
599617042584455424,-41
599617042592140862,-43
599617042599825792,-67
599617042607510784,-149
599617042615195904,-193
599617042622880896,24
599617042630565888,449
599617042638251008,638
599617042645936000,275
599617042653620992,-232
599617042661305984,-314
599617042668991104,-164
599617042676676096,-116
599617042684361088,-89
599617042692046208,-62
599617042699731200,-84
599617042707416192,-87
599617042715101312,-65
599617042722786304,-62
599617042730471296,-62
599617042738156416,-55
599617042745841408,-53
599617042753526400,-53
599617042761211520,-48
599617042768896512,-43
599617042776581504,-48
599617042784266496,-48
599617042791951616,-45
599617042799636608,-43
599617042807321600,-41
599617042815006720,-36
599617042822691712,-31
599617042830376704,-29
599617042838061824,-26
599617042845746816,-21
599617042853431808,-16
599617042861116928,-12
599617042868801920,-4
599617042876486912,-7
599617042884171904,-12
599617042891857024,-12
599617042899542016,-16
599617042907227008,-24
599617042914912128,-38
599617042922597120,-50
599617042930282112,-58
599617042937967232,-65
599617042945652224,-70
599617042953337216,-72
599617042961022336,-74
599617042968707328,-72
599617042976392320,-70
599617042984077312,-72
599617042991762432,-74
599617042999447424,-74
599617043007132416,-72
599617043014817536,-72
599617043022502528,-70
599617043030187520,-67
599617043037872640,-67
599617043045557632,-67
599617043053242624,-62
599617043060927744,-58
599617043068612736,-58
599617043076297728,-60
599617043083982848,-60
599617043091667840,-55
599617043099352832,-55
599617043107037824,-58
599617043114722944,-58
599617043122407936,-58
599617043130092928,-55
599617043137778048,-55
599617043145463040,-58
599617043153148173,-55
599617043160833664,-58
599617043168519168,-58
599617043176204544,-60
599617043183890048,-60
599617043191575424,-60
599617043199260928,-58
599617043206946304,-58
599617043214631808,-58
599617043222317312,-58
599617043230002688,-55
599617043237688192,-55
599617043245373568,-53
599617043253059072,-55
599617043260744448,-62
599617043268429952,-70
599617043276115456,-70
599617043283800832,-70
599617043291486336,-72
599617043299171712,-74
599617043306857216,-70
599617043314542720,-70
599617043322228096,-72
599617043329913600,-70
599617043337598976,-70
599617043345284480,-72
599617043352969856,-72
599617043360655360,-70
599617043368340864,-67
599617043376026240,-65
599617043383711744,-65
599617043391397120,-65
599617043399082624,-62
599617043406768000,-65
599617043414453504,-67
599617043422139008,-67
599617043429824384,-62
599617043437509888,-60
599617043445195264,-62
599617043452880768,-62
599617043460566144,-62
599617043468251648,-62
599617043475937152,-65
599617043483622528,-62
599617043491308032,-62
599617043498993408,-65
599617043506678912,-70
599617043514364288,-74
599617043522049792,-67
599617043529735296,-41
599617043537420672,-24
599617043545106176,-31
599617043552791552,-41
599617043560477056,-55
599617043568162432,-74
599617043575847936,-82
599617043583533440,-70
599617043591218816,-67
599617043598904320,-72
599617043606589696,-70
599617043614275200,-74
599617043621960704,-72
599617043629646080,-74
599617043637331584,-125
599617043645016960,-236
599617043652702464,-246
599617043660387840,50
599617043668073344,538
599617043675758848,710
599617043683444224,263
599617043691129728,-287
599617043698815104,-348
599617043706500608,-176
599617043714185998,-128
599617043721871488,-130
599617043729556992,-120
599617043737242368,-120
599617043744927872,-111
599617043752613248,-99
599617043760298752,-96
599617043767984128,-91
599617043775669632,-84
599617043783355136,-79
599617043791040512,-77
599617043798726016,-72
599617043806411392,-67
599617043814096896,-62
599617043821782272,-62
599617043829467776,-58
599617043837153280,-55
599617043844838656,-53
599617043852524160,-53
599617043860209536,-45
599617043867895040,-41
599617043875580544,-41
599617043883265920,-36
599617043890951424,-31
599617043898636800,-33
599617043906322304,-38
599617043914007680,-43
599617043921693184,-43
599617043929378688,-43
599617043937064064,-45
599617043944749568,-50
599617043952434944,-60
599617043960120448,-74
599617043967805824,-82
599617043975491328,-84
599617043983176832,-89
599617043990862208,-91
599617043998547712,-91
599617044006233088,-89
599617044013918592,-89
599617044021603968,-84
599617044029289472,-82
599617044036974976,-82
599617044044660352,-82
599617044052345856,-79
599617044060031232,-74
599617044067716736,-72
599617044075402112,-72
599617044083087616,-70
599617044090773120,-67
599617044098458496,-70
599617044106144000,-65
599617044113829376,-60
599617044121514880,-58
599617044129200256,-58
599617044136885760,-55
599617044144571264,-53
599617044152256640,-53
599617044159942144,-50
599617044167627520,-48
599617044175313024,-48
599617044182998528,-50
599617044190683904,-45
599617044198369408,-43
599617044206054784,-43
599617044213740288,-43
599617044221425664,-43
599617044229111168,-48
599617044236796672,-45
599617044244482048,-41
599617044252167552,-41
599617044259852928,-43
599617044267538432,-38
599617044275223823,-36
599617044282909312,-41
599617044290594816,-41
599617044298280192,-38
599617044305965696,-36
599617044313651072,-38
599617044321336576,-38
599617044329021952,-36
599617044336707456,-33
599617044344392960,-36
599617044352078336,-36
599617044359763840,-33
599617044367449216,-31
599617044375134720,-33
599617044382820096,-33
599617044390505600,-31
599617044398191104,-31
599617044405876480,-29
599617044413561984,-29
599617044421247360,-26
599617044428932864,-29
599617044436618368,-31
599617044444303744,-29
599617044451989248,-26
599617044459674624,-26
599617044467360128,-24
599617044475045504,-24
599617044482731008,-26
599617044490416512,-26
599617044498101888,-26
599617044505787392,-24
599617044513472768,-26
599617044521158272,-26
599617044528843648,-29
599617044536529152,-36
599617044544214656,-33
599617044551900032,-7
599617044559585536,21
599617044567270912,21
599617044574956416,7
599617044582641792,-4
599617044590327296,-26
599617044598012800,-38
599617044605698176,-29
599617044613383680,-24
599617044621069056,-31
599617044628754560,-26
599617044636439936,-24
599617044644125440,-24
599617044651810944,-26
599617044659496320,-58
599617044667181824,-164
599617044674867200,-217
599617044682552704,33
599617044690238080,563
599617044697923584,887
599617044705609088,546
599617044713294464,-101
599617044720979968,-311
599617044728665344,-145
599617044736350848,-55
599617044744036352,-82
599617044751721728,-96
599617044759407232,-77
599617044767092608,-62
599617044774778112,-60
599617044782463488,-50
599617044790148992,-41
599617044797834496,-36
599617044805519872,-29
599617044813205376,-24
599617044820890752,-21
599617044828576256,-16
599617044836261648,-12
599617044843947136,-12
599617044851632640,-9
599617044859318016,-4
599617044867003520,0
599617044874688896,0
599617044882374400,2
599617044890059776,7
599617044897745280,12
599617044905430784,14
599617044913116160,16
599617044920801664,16
599617044928487040,19
599617044936172544,19
599617044943857920,21
599617044951543424,19
599617044959228928,16
599617044966914304,9
599617044974599808,0
599617044982285184,-12
599617044989970688,-21
599617044997656192,-26
599617045005341568,-31
599617045013027072,-36
599617045020712448,-38
599617045028397952,-36
599617045036083328,-36
599617045043768832,-33
599617045051454336,-31
599617045059139712,-29
599617045066825216,-26
599617045074510592,-24
599617045082196096,-21
599617045089881472,-21
599617045097566976,-19
599617045105252480,-19
599617045112937856,-19
599617045120623360,-16
599617045128308736,-14
599617045135994240,-12
599617045143679616,-9
599617045151365120,-9
599617045159050624,-4
599617045166736000,-4
599617045174421504,-4
599617045182106880,-4
599617045189792384,-2
599617045197477760,-2
599617045205163264,0
599617045212848768,-2
599617045220534144,-2
599617045228219648,-4
599617045235905024,-4
599617045243590528,-7
599617045251275904,-7
599617045258961408,-7
599617045266646912,-4
599617045274332288,-7
599617045282017792,-7
599617045289703168,-7
599617045297388672,-12
599617045305074176,-9
599617045312759552,-4
599617045320445056,-7
599617045328130432,-9
599617045335815936,-4
599617045343501312,-7
599617045351186816,-12
599617045358872320,-12
599617045366557696,-9
599617045374243200,-9
599617045381928576,-12
599617045389614080,-9
599617045397299473,-9
599617045404984960,-7
599617045412670464,-9
599617045420355840,-9
599617045428041344,-9
599617045435726720,-9
599617045443412224,-7
599617045451097600,-9
599617045458783104,-12
599617045466468608,-9
599617045474153984,-7
599617045481839488,-9
599617045489524864,-12
599617045497210368,-9
599617045504895744,-9
599617045512581248,-12
599617045520266752,-14
599617045527952128,-19
599617045535637632,-14
599617045543323008,7
599617045551008512,29
599617045558694016,31
599617045566379392,16
599617045574064896,0
599617045581750272,-16
599617045589435776,-24
599617045597121152,-14
599617045604806656,-9
599617045612492160,-12
599617045620177536,-12
599617045627863040,-7
599617045635548416,-9
599617045643233920,-14
599617045650919296,-50
599617045658604800,-157
599617045666290304,-174
599617045673975680,135
599617045681661184,645
599617045689346560,802
599617045697032064,282
599617045704717440,-314
599617045712402944,-343
599617045720088448,-157
599617045727773824,-99
599617045735459328,-24
599617045743144704,7
599617045750830208,-43
599617045758515584,-36
599617045766201088,-2
599617045773886592,-12
599617045781571968,-14
599617045789257472,-2
599617045796942848,-2
599617045804628352,0
599617045812313728,9
599617045819999232,12
599617045827684736,14
599617045835370112,19
599617045843055616,26
599617045850740992,26
599617045858426496,29
599617045866112000,38
599617045873797376,43
599617045881482880,48
599617045889168256,50
599617045896853760,58
599617045904539136,65
599617045912224640,70
599617045919910144,72
599617045927595520,72
599617045935281024,67
599617045942966400,62
599617045950651904,53
599617045958337298,26
599617045966022784,-4
599617045973708288,-24
599617045981393664,-33
599617045989079168,-45
599617045996764544,-55
599617046004450048,-53
599617046012135424,-50
599617046019820928,-53
599617046027506432,-50
599617046035191808,-41
599617046042877312,-38
599617046050562688,-41
599617046058248192,-36
599617046065933568,-31
599617046073619072,-31
599617046081304576,-29
599617046088989952,-24
599617046096675456,-24
599617046104360832,-21
599617046112046336,-16
599617046119731840,-16
599617046127417216,-19
599617046135102720,-16
599617046142788096,-12
599617046150473600,-12
599617046158158976,-16
599617046165844480,-14
599617046173529984,-12
599617046181215360,-14
599617046188900864,-14
599617046196586240,-12
599617046204271744,-12
599617046211957120,-14
599617046219642624,-14
599617046227328128,-14
599617046235013504,-12
599617046242699008,-9
599617046250384384,-12
599617046258069888,-9
599617046265755264,-7
599617046273440768,-9
599617046281126272,-9
599617046288811648,-7
599617046296497152,-7
599617046304182528,-9
599617046311868032,-9
599617046319553408,-7
599617046327238912,-7
599617046334924416,-7
599617046342609792,-4
599617046350295296,-7
599617046357980672,-9
599617046365666176,-4
599617046373351680,-9
599617046381037056,-16
599617046388722560,-2
599617046396407936,24
599617046404093440,38
599617046411778816,29
599617046419464320,14
599617046427149824,0
599617046434835200,-19
599617046442520704,-19
599617046450206080,-9
599617046457891584,-9
599617046465576960,-12
599617046473262464,-12
599617046480947968,-12
599617046488633344,-12
599617046496318848,-16
599617046504004224,-55
599617046511689728,-149
599617046519375127,-130
599617046527060608,181
599617046534746112,592
599617046542431488,582
599617046550116992,38
599617046557802368,-381
599617046565487872,-292
599617046573173248,-140
599617046580858752,-91
599617046588544256,21
599617046596229632,43
599617046603915136,-21
599617046611600512,-7
599617046619286016,24
599617046626971392,9
599617046634656896,7
599617046642342400,24
599617046650027776,26
599617046657713280,21
599617046665398656,29
599617046673084160,38
599617046680769664,43
599617046688455040,48
599617046696140544,60
599617046703825920,74
599617046711511424,77
599617046719196800,79
599617046726882304,89
599617046734567808,96
599617046742253184,101
599617046749938688,106
599617046757624064,111
599617046765309568,116
599617046772994944,118
599617046780680448,116
599617046788365952,111
599617046796051328,96
599617046803736832,70
599617046811422208,38
599617046819107712,9
599617046826793088,-12
599617046834478592,-24
599617046842164096,-29
599617046849849472,-33
599617046857534976,-33
599617046865220352,-31
599617046872905856,-26
599617046880591232,-21
599617046888276736,-21
599617046895962240,-16
599617046903647616,-12
599617046911333120,-12
599617046919018496,-12
599617046926704000,-9
599617046934389376,-4
599617046942074880,-2
599617046949760384,0
599617046957445760,2
599617046965131264,2
599617046972816640,2
599617046980502144,2
599617046988187648,4
599617046995873024,4
599617047003558528,4
599617047011243904,4
599617047018929408,9
599617047026614784,7
599617047034300288,4
599617047041985792,7
599617047049671168,7
599617047057356672,7
599617047065042048,4
599617047072727552,7
599617047080412952,9
599617047088098432,7
599617047095783936,4
599617047103469312,7
599617047111154816,7
599617047118840192,2
599617047126525696,4
599617047134211072,9
599617047141896576,7
599617047149582080,4
599617047157267456,4
599617047164952960,4
599617047172638336,2
599617047180323840,7
599617047188009216,33
599617047195694720,48
599617047203380224,41
599617047211065600,31
599617047218751104,19
599617047226436480,0
599617047234121984,-7
599617047241807488,0
599617047249492864,4
599617047257178368,4
599617047264863744,7
599617047272549248,4
599617047280234624,7
599617047287920128,12
599617047295605632,-7
599617047303291008,-72
599617047310976512,-130
599617047318661888,-7
599617047326347392,345
599617047334032768,589
599617047341718272,326
599617047349403776,-188
599617047357089152,-321
599617047364774656,-152
599617047372460032,-79
599617047380145536,-14
599617047387830912,67
599617047395516416,33
599617047403201920,2
599617047410887296,31
599617047418572800,33
599617047426258176,24
599617047433943680,31
599617047441629056,36
599617047449314560,31
599617047457000064,33
599617047464685440,41
599617047472370944,45
599617047480056320,48
599617047487741824,53
599617047495427200,60
599617047503112704,62
599617047510798208,62
599617047518483584,70
599617047526169088,77
599617047533854464,84
599617047541539968,94
599617047549225472,96
599617047556910848,101
599617047564596352,111
599617047572281728,113
599617047579967232,106
599617047587652608,94
599617047595338112,77
599617047603023616,53
599617047610708992,24
599617047618394496,2
599617047626079872,-4
599617047633765376,-12
599617047641450777,-19
599617047649135744,-19
599617047656820736,-12
599617047664505856,-9
599617047672190848,-7
599617047679875840,-2
599617047687560960,-4
599617047695245952,-4
599617047702930944,2
599617047710615936,4
599617047718301056,9
599617047725986048,12
599617047733671040,9
599617047741356160,9
599617047749041152,12
599617047756726144,12
599617047764411264,14
599617047772096256,12
599617047779781248,9
599617047787466368,14
599617047795151360,14
599617047802836352,9
599617047810521344,9
599617047818206464,12
599617047825891456,9
599617047833576448,9
599617047841261568,14
599617047848946560,16
599617047856631552,12
599617047864316672,14
599617047872001664,14
599617047879686656,12
599617047887371776,14
599617047895056768,21
599617047902741760,19
599617047910426880,14
599617047918111872,21
599617047925796864,43
599617047933481856,55
599617047941166976,48
599617047948851968,41
599617047956536960,33
599617047964222080,12
599617047971907072,2
599617047979592064,12
599617047987277184,14
599617047994962176,9
599617048002647168,12
599617048010332288,14
599617048018017280,16
599617048025702272,16
599617048033387264,7
599617048041072384,-43
599617048048757376,-108
599617048056442368,-36
599617048064127488,263
599617048071812480,519
599617048079497472,355
599617048087182592,-96
599617048094867584,-275
599617048102552576,-147
599617048110237696,-58
599617048117922688,-4
599617048125607680,55
599617048133292672,36
599617048140977792,9
599617048148662784,26
599617048156347776,36
599617048164032896,31
599617048171717888,36
599617048179402880,38
599617048187088000,38
599617048194772992,41
599617048202458084,43
599617048210143616,48
599617048217829120,53
599617048225514496,58
599617048233200000,55
599617048240885376,60
599617048248570880,65
599617048256256256,70
599617048263941760,72
599617048271627264,74
599617048279312640,82
599617048286998144,91
599617048294683520,96
599617048302369024,96
599617048310054400,91
599617048317739904,89
599617048325425408,82
599617048333110784,65
599617048340796288,38
599617048348481664,12
599617048356167168,-4
599617048363852672,-16
599617048371538048,-21
599617048379223552,-24
599617048386908928,-24
599617048394594432,-24
599617048402279808,-16
599617048409965312,-14
599617048417650816,-16
599617048425336192,-16
599617048433021696,-9
599617048440707072,-7
599617048448392576,-9
599617048456077952,-7
599617048463763456,0
599617048471448960,0
599617048479134336,-2
599617048486819840,4
599617048494505216,9
599617048502190720,7
599617048509876096,2
599617048517561600,4
599617048525247104,9
599617048532932480,9
599617048540617984,9
599617048548303360,12
599617048555988864,12
599617048563674240,12
599617048571359744,12
599617048579045248,9
599617048586730624,9
599617048594416128,9
599617048602101504,9
599617048609787008,9
599617048617472384,12
599617048625157888,12
599617048632843392,12
599617048640528768,14
599617048648214272,16
599617048655899648,12
599617048663585152,14
599617048671270656,29
599617048678956032,45
599617048686641536,41
599617048694326912,36
599617048702012416,38
599617048709697792,16
599617048717383296,-7
599617048725068800,2
599617048732754176,9
599617048740439680,2
599617048748125056,4
599617048755810560,7
599617048763495909,4
599617048771181440,9
599617048778866944,12
599617048786552320,-9
599617048794237824,-74
599617048801923200,-103
599617048809608704,58
599617048817294080,362
599617048824979584,459
599617048832665088,149
599617048840350464,-203
599617048848035968,-207
599617048855721344,-82
599617048863406848,-38
599617048871092224,16
599617048878777728,41
599617048886463232,4
599617048894148608,0
599617048901834112,24
599617048909519488,19
599617048917204992,14
599617048924890496,24
599617048932575872,24
599617048940261376,21
599617048947946752,29
599617048955632256,36
599617048963317632,33
599617048971003136,38
599617048978688640,48
599617048986374016,45
599617048994059520,45
599617049001744896,53
599617049009430400,60
599617049017115776,62
599617049024801280,67
599617049032486784,70
599617049040172160,72
599617049047857664,74
599617049055543040,74
599617049063228544,70
599617049070913920,62
599617049078599424,50
599617049086284928,31
599617049093970304,9
599617049101655808,-7
599617049109341184,-14
599617049117026688,-21
599617049124712064,-29
599617049132397568,-29
599617049140083072,-26
599617049147768448,-26
599617049155453952,-21
599617049163139328,-16
599617049170824832,-21
599617049178510208,-19
599617049186195712,-12
599617049193881216,-9
599617049201566592,-9
599617049209252096,-7
599617049216937472,-7
599617049224622976,-4
599617049232308480,-2
599617049239993856,-2
599617049247679360,-2
599617049255364736,2
599617049263050240,2
599617049270735616,2
599617049278421120,7
599617049286106624,4
599617049293792000,4
599617049301477504,7
599617049309162880,4
599617049316848384,4
599617049324533734,9
599617049332219264,9
599617049339904768,9
599617049347590144,9
599617049355275648,7
599617049362961024,7
599617049370646528,12
599617049378331904,9
599617049386017408,7
599617049393702912,9
599617049401388288,14
599617049409073792,12
599617049416759168,9
599617049424444672,12
599617049432130048,14
599617049439815552,21
599617049447501056,21
599617049455186432,14
599617049462871936,14
599617049470557312,16
599617049478242816,14
599617049485928320,9
599617049493613696,9
599617049501299200,9
599617049508984576,9
599617049516670080,12
599617049524355456,12
599617049532040960,12
599617049539726464,14
599617049547411840,14
599617049555097344,9
599617049562782720,12
599617049570468224,14
599617049578153600,12
599617049585839104,12
599617049593524608,14
599617049601209984,14
599617049608895488,16
599617049616580864,14
599617049624266368,14
599617049631951744,14
599617049639637248,14
599617049647322752,14
599617049655008128,16
599617049662693632,14
599617049670379008,14
599617049678064512,19
599617049685749888,19
599617049693435392,16
599617049701120896,16
599617049708806272,16
599617049716491776,16
599617049724177152,16
599617049731862656,14
599617049739548160,16
599617049747233536,16
599617049754919040,19
599617049762604416,16
599617049770289920,12
599617049777975296,12
599617049785660800,16
599617049793346304,16
599617049801031680,14
599617049808717184,12
599617049816402560,24
599617049824088064,43
599617049831773440,50
599617049839458944,45
599617049847144448,38
599617049854829824,24
599617049862515328,9
599617049870200704,7
599617049877886208,14
599617049885571563,16
599617049893257088,12
599617049900942592,14
599617049908627968,16
599617049916313472,19
599617049923998848,14
599617049931684352,-24
599617049939369728,-101
599617049947055232,-89
599617049954740736,164
599617049962426112,509
599617049970111616,526
599617049977796992,111
599617049985482496,-229
599617049993167872,-186
599617050000853376,-67
599617050008538880,-33
599617050016224256,16
599617050023909760,29
599617050031595136,-2
599617050039280640,7
599617050046966144,21
599617050054651520,14
599617050062337024,16
599617050070022400,24
599617050077707904,24
599617050085393280,26
599617050093078784,31
599617050100764288,31
599617050108449664,36
599617050116135168,41
599617050123820544,41
599617050131506048,41
599617050139191424,48
599617050146876928,50
599617050154562432,48
599617050162247808,53
599617050169933312,60
599617050177618688,58
599617050185304192,62
599617050192989568,65
599617050200675072,62
599617050208360576,62
599617050216045952,62
599617050223731456,58
599617050231416832,48
599617050239102336,41
599617050246787712,29
599617050254473216,14
599617050262158720,4
599617050269844096,0
599617050277529600,-7
599617050285214976,-9
599617050292900480,-7
599617050300585856,-7
599617050308271360,-4
599617050315956864,-4
599617050323642240,-4
599617050331327744,-2
599617050339013120,0
599617050346698624,2
599617050354384128,4
599617050362069504,2
599617050369755008,0
599617050377440384,2
599617050385125888,7
599617050392811264,4
599617050400496768,4
599617050408182272,2
599617050415867648,2
599617050423553152,7
599617050431238528,4
599617050438924032,0
599617050446609388,0
599617050454294912,0
599617050461980416,0
599617050469665792,0
599617050477351296,0
599617050485036672,0
599617050492722176,0
599617050500407552,-4
599617050508093056,-2
599617050515778560,0
599617050523463936,-2
599617050531149440,-2
599617050538834816,2
599617050546520320,-2
599617050554205696,-4
599617050561891200,0
599617050569576704,2
599617050577262080,-2
599617050584947584,-4
599617050592632960,-4
599617050600318464,-4
599617050608003968,-4
599617050615689344,-4
599617050623374848,-2
599617050631060224,0
599617050638745728,-2
599617050646431104,-4
599617050654116608,-2
599617050661802112,0
599617050669487488,0
599617050677172992,2
599617050684858368,0
599617050692543872,-2
599617050700229248,-2
599617050707914752,0
599617050715600256,-2
599617050723285632,-2
599617050730971136,-2
599617050738656512,0
599617050746342016,2
599617050754027392,4
599617050761712896,4
599617050769398400,2
599617050777083776,2
599617050784769280,2
599617050792454656,2
599617050800140160,4
599617050807825536,4
599617050815511040,2
599617050823196544,2
599617050830881920,4
599617050838567424,2
599617050846252800,0
599617050853938304,-2
599617050861623680,-2
599617050869309184,-2
599617050876994688,-7
599617050884680064,-16
599617050892365568,-9
599617050900050944,12
599617050907736448,24
599617050915421952,14
599617050923107328,4
599617050930792832,-4
599617050938478208,-21
599617050946163712,-29
599617050953849088,-21
599617050961534592,-19
599617050969220096,-26
599617050976905472,-24
599617050984590976,-21
599617050992276352,-26
599617050999961856,-29
599617051007647213,-62
599617051015332736,-154
599617051023018240,-181
599617051030703616,60
599617051038389120,500
599617051046074496,674
599617051053760000,277
599617051061445376,-232
599617051069130880,-292
599617051076816384,-132
599617051084501760,-84
599617051092187264,-72
599617051099872640,-60
599617051107558144,-74
599617051115243520,-70
599617051122929024,-53
599617051130614528,-50
599617051138299904,-48
599617051145985408,-41
599617051153670784,-38
599617051161356288,-36
599617051169041792,-31
599617051176727168,-26
599617051184412672,-24
599617051192098048,-21
599617051199783552,-16
599617051207468928,-14
599617051215154432,-14
599617051222839936,-12
599617051230525312,-7
599617051238210816,-4
599617051245896192,-2
599617051253581696,0
599617051261267072,2
599617051268952576,4
599617051276638080,4
599617051284323456,4
599617051292008960,2
599617051299694336,0
599617051307379840,0
599617051315065216,-4
599617051322750720,-16
599617051330436224,-29
599617051338121600,-38
599617051345807104,-43
599617051353492480,-45
599617051361177984,-50
599617051368863360,-53
599617051376548864,-50
599617051384234368,-50
599617051391919744,-50
599617051399605248,-45
599617051407290624,-45
599617051414976128,-48
599617051422661504,-43
599617051430347008,-38
599617051438032512,-41
599617051445717888,-38
599617051453403392,-43
599617051461088768,-45
599617051468774272,-43
599617051476459776,-41
599617051484145152,-41
599617051491830656,-38
599617051499516032,-33
599617051507201536,-33
599617051514886912,-33
599617051522572416,-31
599617051530257920,-31
599617051537943296,-31
599617051545628800,-31
599617051553314176,-29
599617051560999680,-29
599617051568685038,-31
599617051576370560,-31
599617051584056064,-26
599617051591741440,-29
599617051599426944,-29
599617051607112320,-24
599617051614797824,-26
599617051622483200,-26
599617051630168704,-26
599617051637854208,-24
599617051645539584,-21
599617051653225088,-21
599617051660910464,-21
599617051668595968,-21
599617051676281344,-21
599617051683966848,-19
599617051691652352,-19
599617051699337728,-16
599617051707023232,-16
599617051714708608,-16
599617051722394112,-16
599617051730079616,-16
599617051737764992,-16
599617051745450496,-16
599617051753135872,-16
599617051760821376,-16
599617051768506752,-14
599617051776192256,-14
599617051783877760,-12
599617051791563136,-14
599617051799248640,-14
599617051806934016,-14
599617051814619520,-14
599617051822304896,-12
599617051829990400,-12
599617051837675904,-12
599617051845361280,-14
599617051853046784,-12
599617051860732160,-9
599617051868417664,-9
599617051876103040,-9
599617051883788544,-12
599617051891474048,-9
599617051899159424,-7
599617051906844928,-12
599617051914530304,-14
599617051922215808,-14
599617051929901184,-24
599617051937586688,-24
599617051945272192,0
599617051952957568,29
599617051960643072,26
599617051968328448,9
599617051976013952,4
599617051983699328,-7
599617051991384832,-26
599617051999070336,-24
599617052006755712,-9
599617052014441216,-12
599617052022126592,-16
599617052029812096,-12
599617052037497600,-9
599617052045182976,-9
599617052052868480,-29
599617052060553856,-113
599617052068239360,-198
599617052075924736,-55
599617052083610240,393
599617052091295744,790
599617052098981120,618
599617052106666624,12
599617052114352000,-292
599617052122037504,-152
599617052129722863,-38
599617052137408384,-62
599617052145093888,-74
599617052152779264,-60
599617052160464768,-50
599617052168150144,-48
599617052175835648,-41
599617052183521024,-31
599617052191206528,-29
599617052198892032,-26
599617052206577408,-21
599617052214262912,-16
599617052221948288,-14
599617052229633792,-12
599617052237319168,-9
599617052245004672,-7
599617052252690176,-7
599617052260375552,-4
599617052268061056,0
599617052275746432,2
599617052283431936,7
599617052291117440,7
599617052298802816,12
599617052306488320,14
599617052314173696,16
599617052321859200,16
599617052329544576,16
599617052337230080,19
599617052344915584,16
599617052352600960,14
599617052360286464,12
599617052367971840,4
599617052375657344,-7
599617052383342720,-19
599617052391028224,-24
599617052398713728,-31
599617052406399104,-38
599617052414084608,-43
599617052421769984,-43
599617052429455488,-41
599617052437140864,-41
599617052444826368,-38
599617052452511872,-36
599617052460197248,-38
599617052467882752,-41
599617052475568128,-36
599617052483253632,-31
599617052490939008,-33
599617052498624512,-33
599617052506310016,-31
599617052513995392,-29
599617052521680896,-26
599617052529366272,-26
599617052537051776,-24
599617052544737152,-24
599617052552422656,-21
599617052560108160,-21
599617052567793536,-19
599617052575479040,-19
599617052583164416,-19
599617052590849920,-16
599617052598535424,-16
599617052606220800,-16
599617052613906304,-16
599617052621591680,-16
599617052629277184,-16
599617052636962560,-14
599617052644648064,-14
599617052652333568,-14
599617052660018944,-14
599617052667704448,-14
599617052675389824,-12
599617052683075328,-12
599617052690760688,-12
599617052698446208,-12
599617052706131712,-9
599617052713817088,-12
599617052721502592,-12
599617052729187968,-9
599617052736873472,-9
599617052744558848,-9
599617052752244352,-7
599617052759929856,-9
599617052767615232,-9
599617052775300736,-7
599617052782986112,-4
599617052790671616,-7
599617052798356992,-7
599617052806042496,-7
599617052813728000,-7
599617052821413376,-4
599617052829098880,-4
599617052836784256,-4
599617052844469760,-4
599617052852155264,-2
599617052859840640,-2
599617052867526144,-4
599617052875211520,-4
599617052882897024,-2
599617052890582400,-2
599617052898267904,-2
599617052905953408,0
599617052913638784,0
599617052921324288,2
599617052929009664,2
599617052936695168,2
599617052944380544,4
599617052952066048,2
599617052959751552,0
599617052967436928,0
599617052975122432,-7
599617052982807808,-12
599617052990493312,9
599617052998178688,43
599617053005864192,48
599617053013549696,31
599617053021235072,19
599617053028920576,4
599617053036605952,-14
599617053044291456,-12
599617053051976832,2
599617053059662336,0
599617053067347840,-4
599617053075033216,0
599617053082718720,2
599617053090404096,0
599617053098089600,-16
599617053105775104,-106
599617053113460480,-195
599617053121145984,-45
599617053128831360,427
599617053136516864,853
599617053144202240,688
599617053151887744,48
599617053159573248,-299
599617053167258624,-178
599617053174944128,-48
599617053182629504,-45
599617053190315008,-62
599617053198000384,-62
599617053205685888,-43
599617053213371392,-29
599617053221056768,-26
599617053228742272,-21
599617053236427648,-12
599617053244113152,-9
599617053251798517,-4
599617053259484032,0
599617053267169536,2
599617053274854912,4
599617053282540416,7
599617053290225792,9
599617053297911296,14
599617053305596672,16
599617053313282176,16
599617053320967680,16
599617053328653056,24
599617053336338560,29
599617053344023936,29
599617053351709440,31
599617053359394816,33
599617053367080320,36
599617053374765824,41
599617053382451200,41
599617053390136704,36
599617053397822080,33
599617053405507584,29
599617053413193088,16
599617053420878464,0
599617053428563968,-14
599617053436249344,-24
599617053443934848,-26
599617053451620224,-31
599617053459305728,-36
599617053466991232,-38
599617053474676608,-33
599617053482362112,-31
599617053490047488,-33
599617053497732992,-31
599617053505418368,-26
599617053513103872,-24
599617053520789376,-24
599617053528474752,-19
599617053536160256,-16
599617053543845632,-16
599617053551531136,-14
599617053559216512,-9
599617053566902016,-12
599617053574587520,-12
599617053582272896,-9
599617053589958400,-9
599617053597643776,-9
599617053605329280,-9
599617053613014656,-7
599617053620700160,-7
599617053628385664,-7
599617053636071040,-7
599617053643756544,-9
599617053651441920,-9
599617053659127424,-9
599617053666812800,-12
599617053674498304,-12
599617053682183808,-9
599617053689869184,-9
599617053697554688,-9
599617053705240064,-7
599617053712925568,-4
599617053720611072,-7
599617053728296448,-9
599617053735981952,-7
599617053743667328,-9
599617053751352832,-7
599617053759038208,-7
599617053766723712,-7
599617053774409216,-7
599617053782094592,-7
599617053789780096,-7
599617053797465472,-4
599617053805150976,-2
599617053812836342,-7
599617053820521600,-9
599617053828206848,-4
599617053835892096,-4
599617053843577344,-4
599617053851262592,-7
599617053858947840,-4
599617053866633088,-4
599617053874318336,-7
599617053882003584,-7
599617053889688704,-7
599617053897373952,-7
599617053905059200,-4
599617053912744448,-7
599617053920429696,-7
599617053928114944,-12
599617053935800192,-12
599617053943485440,4
599617053951170688,31
599617053958855936,38
599617053966541184,24
599617053974226432,7
599617053981911680,-7
599617053989596928,-19
599617053997282176,-14
599617054004967424,-9
599617054012652672,-12
599617054020337920,-12
599617054028023040,-9
599617054035708288,-12
599617054043393536,-12
599617054051078784,-21
599617054058764032,-89
599617054066449280,-178
599617054074134528,-72
599617054081819776,338
599617054089505024,708
599617054097190272,509
599617054104875520,-128
599617054112560768,-406
599617054120246016,-224
599617054127931264,-120
599617054135616512,-70
599617054143301760,33
599617054150987008,16
599617054158672128,-33
599617054166357376,0
599617054174042624,16
599617054181727872,-2
599617054189413120,4
599617054197098368,16
599617054204783616,12
599617054212468864,14
599617054220154112,21
599617054227839360,21
599617054235524608,26
599617054243209856,33
599617054250895104,36
599617054258580352,38
599617054266265600,45
599617054273950848,48
599617054281636096,50
599617054289321216,60
599617054297006464,67
599617054304691712,72
599617054312376960,79
599617054320062208,89
599617054327747456,94
599617054335432704,91
599617054343117952,89
599617054350803200,79
599617054358488448,58
599617054366173696,26
599617054373858909,-2
599617054381544192,-19
599617054389229440,-31
599617054396914688,-43
599617054404599936,-48
599617054412285184,-45
599617054419970432,-45
599617054427655680,-45
599617054435340928,-41
599617054443026176,-38
599617054450711296,-38
599617054458396544,-33
599617054466081792,-29
599617054473767040,-29
599617054481452288,-24
599617054489137536,-19
599617054496822784,-16
599617054504508032,-14
599617054512193280,-14
599617054519878528,-14
599617054527563776,-14
599617054535249024,-14
599617054542934272,-12
599617054550619520,-9
599617054558304768,-9
599617054565990016,-12
599617054573675264,-12
599617054581360512,-9
599617054589045632,-9
599617054596730880,-12
599617054604416128,-12
599617054612101376,-12
599617054619786624,-9
599617054627471872,-9
599617054635157120,-9
599617054642842368,-7
599617054650527616,-7
599617054658212864,-7
599617054665898112,-7
599617054673583360,-4
599617054681268608,-4
599617054688953856,-4
599617054696639104,-4
599617054704324352,-4
599617054712009600,-4
599617054719694720,-2
599617054727379968,-4
599617054735065216,-2
599617054742750464,-2
599617054750435712,-2
599617054758120960,-2
599617054765806208,-2
599617054773491456,-2
599617054781176704,-4
599617054788861952,-9
599617054796547200,2
599617054804232448,31
599617054811917696,43
599617054819602944,29
599617054827288192,14
599617054834973440,4
599617054842658688,-12
599617054850343808,-12
599617054858029056,-2
599617054865714304,-7
599617054873399552,-7
599617054881084800,-2
599617054888770048,-2
599617054896455296,-4
599617054904140544,-4
599617054911825792,-43
599617054919511040,-132
599617054927196288,-123
599617054934881474,178
599617054942567040,582
599617054950252544,577
599617054957937920,50
599617054965623424,-352
599617054973308800,-261
599617054980994304,-113
599617054988679680,-74
599617054996365184,36
599617055004050688,67
599617055011736064,2
599617055019421568,4
599617055027106944,36
599617055034792448,26
599617055042477824,21
599617055050163328,31
599617055057848832,31
599617055065534208,31
599617055073219712,33
599617055080905088,36
599617055088590592,38
599617055096276096,45
599617055103961472,50
599617055111646976,58
599617055119332352,62
599617055127017856,62
599617055134703232,65
599617055142388736,72
599617055150074240,79
599617055157759616,84
599617055165445120,89
599617055173130496,96
599617055180816000,99
599617055188501376,94
599617055196186880,91
599617055203872384,82
599617055211557760,58
599617055219243264,29
599617055226928640,4
599617055234614144,-19
599617055242299520,-31
599617055249985024,-36
599617055257670528,-43
599617055265355904,-41
599617055273041408,-36
599617055280726784,-36
599617055288412288,-36
599617055296097664,-31
599617055303783168,-26
599617055311468672,-16
599617055319154048,-9
599617055326839552,-7
599617055334524928,-2
599617055342210432,0
599617055349895808,-2
599617055357581312,0
599617055365266816,4
599617055372952192,4
599617055380637696,4
599617055388323072,7
599617055396008576,9
599617055403694080,7
599617055411379456,7
599617055419064960,12
599617055426750336,14
599617055434435840,9
599617055442121216,12
599617055449806720,16
599617055457492224,16
599617055465177600,19
599617055472863104,24
599617055480548480,24
599617055488233984,24
599617055495919299,21
599617055503604864,21
599617055511290368,24
599617055518975744,29
599617055526661248,24
599617055534346624,24
599617055542032128,29
599617055549717504,31
599617055557403008,29
599617055565088512,26
599617055572773888,26
599617055580459392,36
599617055588144768,58
599617055595830272,72
599617055603515648,60
599617055611201152,53
599617055618886656,45
599617055626572032,24
599617055634257536,12
599617055641942912,24
599617055649628416,29
599617055657313920,21
599617055664999296,21
599617055672684800,29
599617055680370176,29
599617055688055680,21
599617055695741056,12
599617055703426560,-38
599617055711112064,-113
599617055718797440,-14
599617055726482944,333
599617055734168320,594
599617055741853824,364
599617055749539200,-142
599617055757224704,-299
599617055764910208,-140
599617055772595584,-62
599617055780281088,-2
599617055787966464,72
599617055795651968,41
599617055803337344,7
599617055811022848,38
599617055818708352,43
599617055826393728,29
599617055834079232,38
599617055841764608,45
599617055849450112,41
599617055857135488,43
599617055864820992,50
599617055872506496,48
599617055880191872,48
599617055887877376,55
599617055895562752,60
599617055903248256,55
599617055910933632,58
599617055918619136,67
599617055926304640,70
599617055933990016,74
599617055941675520,82
599617055949360896,84
599617055957046400,82
599617055964731904,89
599617055972417280,94
599617055980102784,87
599617055987788160,72
599617055995473664,65
599617056003159040,45
599617056010844544,14
599617056018530048,-4
599617056026215424,-9
599617056033900928,-24
599617056041586304,-33
599617056049271808,-29
599617056056957124,-26
599617056064642688,-31
599617056072328192,-26
599617056080013568,-21
599617056087699072,-24
599617056095384448,-19
599617056103069952,-14
599617056110755328,-14
599617056118440832,-9
599617056126126336,-12
599617056133811712,-9
599617056141497216,-2
599617056149182592,0
599617056156868096,-2
599617056164553472,-2
599617056172238976,0
599617056179924480,0
599617056187609856,2
599617056195295360,4
599617056202980736,4
599617056210666240,2
599617056218351744,7
599617056226037120,7
599617056233722624,4
599617056241408000,4
599617056249093504,4
599617056256778880,2
599617056264464384,7
599617056272149888,9
599617056279835264,7
599617056287520768,4
