599616676198179840,1249
599616676205872128,4043
599616676213564416,5788
599616676221256704,5438
599616676228949120,5343
599616676236641408,5812
599616676244333696,5728
599616676252025984,5580
599616676259718272,5721
599616676267410560,5718
599616676275102976,5609
599616676282795264,5624
599616676290487552,5634
599616676298179840,5573
599616676305872128,5546
599616676313564416,5539
599616676321256704,5503
599616676328949120,5457
599616676336641408,5430
599616676344333696,5406
599616676352025984,5380
599616676359718272,5343
599616676367410560,5302
599616676375102976,5278
599616676382795264,5249
599616676390487552,5208
599616676398179840,5177
599616676405872128,5150
599616676413564416,5109
599616676421256704,5066
599616676428949120,5037
599616676436641408,5010
599616676444333696,4979
599616676452025984,4940
599616676459718272,4901
599616676467410560,4875
599616676475102976,4843
599616676482795264,4800
599616676490487552,4771
599616676498179840,4744
599616676505872128,4701
599616676513564416,4659
599616676521256704,4630
599616676528949120,4606
599616676536641408,4572
599616676544333696,4531
599616676552025984,4495
599616676559718272,4464
599616676567410560,4427
599616676575102976,4391
599616676582795264,4367
599616676590487552,4336
599616676598179840,4290
599616676605872128,4249
599616676613564416,4222
599616676621256704,4186
599616676628949120,4137
599616676636641408,4104
599616676644333696,4094
599616676652025984,4087
599616676659718272,4053
599616676667410560,4007
599616676675102976,3963
599616676682795264,3925
599616676690487552,3886
599616676698179840,3840
599616676705872128,3804
599616676713564416,3777
599616676721256704,3741
599616676728949120,3702
599616676736641408,3673
599616676744333696,3639
599616676752025985,3560
599616676759710976,3410
599616676767395968,3340
599616676775081088,3594
599616676782766080,4123
599616676790451072,4420
599616676798136192,3988
599616676805821184,3255
599616676813506176,3079
599616676821191168,3255
599616676828876288,3291
599616676836561280,3260
599616676844246272,3219
599616676851931392,3163
599616676859616384,3151
599616676867301376,3132
599616676874986496,3086
599616676882671488,3062
599616676890356480,3047
599616676898041600,3013
599616676905726592,2980
599616676913411584,2963
599616676921096576,2936
599616676928781696,2902
599616676936466688,2876
599616676944151680,2854
599616676951836800,2835
599616676959521792,2808
599616676967206784,2779
599616676974891904,2757
599616676982576896,2738
599616676990261888,2714
599616676997947008,2692
599616677005632000,2675
599616677013316992,2646
599616677021002112,2620
599616677028687104,2595
599616677036372096,2574
599616677044057088,2549
599616677051742208,2511
599616677059427200,2462
599616677067112192,2416
599616677074797312,2378
599616677082482304,2339
599616677090167296,2303
599616677097852416,2276
599616677105537408,2250
599616677113222400,2221
599616677120907520,2199
599616677128592512,2182
599616677136277504,2163
599616677143962496,2141
599616677151647616,2119
599616677159332608,2100
599616677167017600,2078
599616677174702720,2061
599616677182387712,2047
599616677190072704,2035
599616677197757824,2013
599616677205442816,1986
599616677213127808,1969
599616677220812928,1957
599616677228497920,1938
599616677236182912,1914
599616677243867904,1897
599616677251553024,1882
599616677259238016,1861
599616677266923008,1841
599616677274608128,1824
599616677282293120,1810
599616677289978112,1786
599616677297663232,1764
599616677305348224,1747
599616677313033292,1730
599616677320718848,1716
599616677328404352,1696
599616677336089728,1679
599616677343775232,1662
599616677351460608,1641
599616677359146112,1626
599616677366831488,1621
599616677374516992,1602
599616677382202496,1568
599616677389887872,1556
599616677397573376,1549
599616677405258752,1525
599616677412944256,1500
599616677420629632,1484
599616677428315136,1474
599616677436000640,1484
599616677443686016,1496
599616677451371520,1479
599616677459056896,1455
599616677466742400,1430
599616677474427904,1392
599616677482113280,1372
599616677489798784,1368
599616677497484160,1358
599616677505169664,1343
599616677512855040,1331
599616677520540544,1319
599616677528226048,1302
599616677535911424,1290
599616677543596928,1266
599616677551282304,1177
599616677558967808,1061
599616677566653184,1155
599616677574338688,1590
599616677582024192,2001
599616677589709568,1803
599616677597395072,1133
599616677605080448,853
599616677612765952,1036
599616677620451328,1116
599616677628136832,1121
599616677635822336,1184
599616677643507712,1155
599616677651193216,1102
599616677658878592,1114
599616677666564096,1116
599616677674249472,1097
599616677681934976,1097
599616677689620480,1094
599616677697305856,1077
599616677704991360,1065
599616677712676736,1063
599616677720362240,1061
599616677728047616,1053
599616677735733120,1048
599616677743418624,1041
599616677751104000,1039
599616677758789504,1039
599616677766474880,1036
599616677774160384,1032
599616677781845888,1032
599616677789531264,1032
599616677797216768,1029
599616677804902144,1024
599616677812587648,1019
599616677820273024,1015
599616677827958528,1005
599616677835644032,988
599616677843329408,961
599616677851014912,925
599616677858700288,884
599616677866385792,855
599616677874071117,833
599616677881756672,814
599616677889442176,800
599616677897127552,795
599616677904813056,792
599616677912498432,787
599616677920183936,783
599616677927869312,778
599616677935554816,775
599616677943240320,773
599616677950925696,766
599616677958611200,756
599616677966296576,751
599616677973982080,749
599616677981667456,742
599616677989352960,737
599616677997038464,737
599616678004723840,732
599616678012409344,725
599616678020094720,720
599616678027780224,715
599616678035465728,708
599616678043151104,703
599616678050836608,700
599616678058521984,693
599616678066207488,688
599616678073892864,686
599616678081578368,679
599616678089263872,671
599616678096949248,669
599616678104634752,662
599616678112320128,655
599616678120005632,652
599616678127691008,647
599616678135376512,640
599616678143062016,635
599616678150747392,626
599616678158432896,616
599616678166118272,623
599616678173803776,645
599616678181489152,652
599616678189174656,642
599616678196860160,635
599616678204545536,616
599616678212231040,587
599616678219916416,584
599616678227601920,592
599616678235287296,584
599616678242972800,575
599616678250658304,575
599616678258343680,572
599616678266029184,567
599616678273714560,563
599616678281400064,536
599616678289085440,439
599616678296770944,355
599616678304456448,526
599616678312141824,995
599616678319827328,1324
599616678327512704,1012
599616678335198208,389
599616678342883712,236
599616678350569088,420
599616678358254592,473
599616678365939968,495
599616678373625472,526
599616678381310848,485
599616678388996352,468
599616678396681856,490
599616678404367232,485
599616678412052736,473
599616678419738112,480
599616678427423616,483
599616678435108942,478
599616678442793984,480
599616678450478976,483
599616678458164096,480
599616678465849088,483
599616678473534080,488
599616678481219200,490
599616678488904192,485
599616678496589184,485
599616678504274176,493
599616678511959296,497
599616678519644288,502
599616678527329280,505
599616678535014400,507
599616678542699392,509
599616678550384384,512
599616678558069504,512
599616678565754496,509
599616678573439488,497
599616678581124608,476
599616678588809600,449
599616678596494592,422
599616678604179584,406
599616678611864704,391
599616678619549696,384
599616678627234688,381
599616678634919808,377
599616678642604800,377
599616678650289792,377
599616678657974912,377
599616678665659904,377
599616678673344896,374
599616678681030016,377
599616678688715008,379
599616678696400000,379
599616678704085120,377
599616678711770112,372
599616678719455104,372
599616678727140096,374
599616678734825216,374
599616678742510208,374
599616678750195200,372
599616678757880320,372
599616678765565312,372
599616678773250304,372
599616678780935424,369
599616678788620416,364
599616678796305408,364
599616678803990528,360
599616678811675520,357
599616678819360512,355
599616678827045504,357
599616678834730624,357
599616678842415616,355
599616678850100608,352
599616678857785728,350
599616678865470720,350
599616678873155712,348
599616678880840832,340
599616678888525824,333
599616678896210816,326
599616678903895936,328
599616678911580928,352
599616678919265920,377
599616678926950912,372
599616678934636032,367
599616678942321024,357
599616678950006016,331
599616678957691136,321
599616678965376128,331
599616678973061120,333
599616678980746240,328
599616678988431232,328
599616678996116249,328
599616679003801728,328
599616679011487232,328
599616679019172608,319
599616679026858112,248
599616679034543488,130
599616679042228992,181
599616679049914368,594
599616679057599872,1133
599616679065285376,1193
599616679072970752,587
599616679080656256,79
599616679088341632,149
599616679096027136,311
599616679103712512,302
599616679111398016,287
599616679119083520,282
599616679126768896,270
599616679134454400,277
599616679142139776,285
599616679149825280,282
599616679157510784,285
599616679165196160,290
599616679172881664,290
599616679180567040,290
599616679188252544,292
599616679195937920,294
599616679203623424,294
599616679211308928,294
599616679218994304,294
599616679226679808,297
599616679234365184,299
599616679242050688,302
599616679249736064,302
599616679257421568,304
599616679265107072,306
599616679272792448,309
599616679280477952,311
599616679288163328,311
599616679295848832,309
599616679303534208,306
599616679311219712,304
599616679318905216,299
599616679326590592,285
599616679334276096,268
599616679341961472,256
599616679349646976,246
599616679357332352,239
599616679365017856,234
599616679372703360,234
599616679380388736,234
599616679388074240,236
599616679395759616,236
599616679403445120,236
599616679411130496,236
599616679418816000,239
599616679426501504,239
599616679434186880,239
599616679441872384,239
599616679449557760,236
599616679457243264,236
599616679464928768,239
599616679472614144,239
599616679480299648,239
599616679487985024,239
599616679495670528,236
599616679503355904,236
599616679511041408,236
599616679518726912,236
599616679526412288,236
599616679534097792,236
599616679541783168,234
599616679549468672,234
599616679557154074,234
599616679564839040,232
599616679572524032,229
599616679580209152,229
599616679587894144,229
599616679595579136,224
599616679603264256,222
599616679610949248,224
599616679618634240,224
599616679626319232,224
599616679634004352,222
599616679641689344,217
599616679649374336,215
599616679657059456,207
599616679664744448,200
599616679672429440,195
599616679680114560,200
599616679687799552,229
599616679695484544,251
599616679703169664,244
599616679710854656,236
599616679718539648,229
599616679726224768,205
599616679733909760,193
599616679741594752,198
599616679749279744,200
599616679756964864,198
599616679764649856,198
599616679772334848,195
599616679780019968,193
599616679787704960,193
599616679795389952,181
599616679803075072,101
599616679810760064,-26
599616679818445056,45
599616679826130176,502
599616679833815168,1080
599616679841500160,1131
599616679849185152,488
599616679856870272,-43
599616679864555264,14
599616679872240256,169
599616679879925376,135
599616679887610368,91
599616679895295360,99
599616679902980480,106
599616679910665472,101
599616679918350464,99
599616679926035584,94
599616679933720576,96
599616679941405568,99
599616679949090560,94
599616679956775680,94
599616679964460672,94
599616679972145664,89
599616679979830784,84
599616679987515776,84
599616679995200768,87
599616680002885888,87
599616680010570880,89
599616680018255872,89
599616680025940992,91
599616680033625984,94
599616680041310976,96
599616680048996096,96
599616680056681088,96
599616680064366080,96
599616680072051072,94
599616680079736192,94
599616680087421184,91
599616680095106176,89
599616680102791296,82
599616680110476288,67
599616680118161385,60
599616680125846912,58
599616680133532416,55
599616680141217792,58
599616680148903296,58
599616680156588672,55
599616680164274176,58
599616680171959552,65
599616680179645056,67
599616680187330560,65
599616680195015936,65
599616680202701440,67
599616680210386816,70
599616680218072320,67
599616680225757696,70
599616680233443200,74
599616680241128704,74
599616680248814080,79
599616680256499584,84
599616680264184960,84
599616680271870464,84
599616680279555968,91
599616680287241344,96
599616680294926848,96
599616680302612224,99
599616680310297728,103
599616680317983104,103
599616680325668608,103
599616680333354112,106
599616680341039488,106
599616680348724992,111
599616680356410368,113
599616680364095872,108
599616680371781248,106
599616680379466752,113
599616680387152256,116
599616680394837632,113
599616680402523136,116
599616680410208512,120
599616680417894016,120
599616680425579392,120
599616680433264896,123
599616680440950400,125
599616680448635776,118
599616680456321280,108
599616680464006656,101
599616680471692160,111
599616680479377536,145
599616680487063040,164
599616680494748544,161
599616680502433920,161
599616680510119424,154
599616680517804800,130
599616680525490304,120
599616680533175680,130
599616680540861184,132
599616680548546688,130
599616680556232064,130
599616680563917568,130
599616680571602944,130
599616680579288448,130
599616680586973952,113
599616680594659328,26
599616680602344832,-84
599616680610030208,24
599616680617715712,505
599616680625401088,1058
599616680633086592,1048
599616680640772096,389
599616680648457472,-94
599616680656142976,-9
599616680663828352,137
599616680671513856,113
599616680679199210,77
599616680686884736,82
599616680694570240,91
599616680702255616,96
599616680709941120,101
599616680717626496,108
599616680725312000,113
599616680732997376,116
599616680740682880,120
599616680748368384,125
599616680756053760,130
599616680763739264,132
599616680771424640,137
599616680779110144,145
599616680786795520,149
599616680794481024,152
599616680802166528,157
599616680809851904,159
599616680817537408,161
599616680825222784,166
599616680832908288,171
599616680840593792,176
599616680848279168,176
599616680855964672,176
599616680863650048,178
599616680871335552,178
599616680879020928,178
599616680886706432,174
599616680894391936,166
599616680902077312,157
599616680909762816,149
599616680917448192,147
599616680925133696,145
599616680932819072,149
599616680940504576,161
599616680948190080,166
599616680955875456,166
599616680963560960,166
599616680971246336,171
599616680978931840,176
599616680986617216,178
599616680994302720,178
599616681001988224,181
599616681009673600,183
599616681017359104,186
599616681025044480,188
599616681032729984,190
599616681040415360,190
599616681048100864,193
599616681055786368,195
599616681063471744,193
599616681071157248,193
599616681078842624,198
599616681086528128,198
599616681094213504,198
599616681101899008,198
599616681109584512,195
599616681117269888,190
599616681124955392,188
599616681132640768,186
599616681140326272,188
599616681148011776,186
599616681155697152,181
599616681163382656,174
599616681171068032,166
599616681178753536,161
599616681186438912,157
599616681194124416,159
599616681201809920,186
599616681209495296,210
599616681217180800,207
599616681224866176,203
599616681232551680,190
599616681240237035,161
599616681247922816,149
599616681255608576,159
599616681263294336,161
599616681270979968,154
599616681278665728,154
599616681286351488,157
599616681294037248,157
599616681301722880,157
599616681309408640,142
599616681317094400,67
599616681324780160,-53
599616681332465792,24
599616681340151552,485
599616681347837312,1061
599616681355523072,1102
599616681363208704,451
599616681370894464,-77
599616681378580224,-21
599616681386265984,137
599616681393951616,130
599616681401637376,96
599616681409323136,91
599616681417008896,96
599616681424694528,101
599616681432380288,103
599616681440066048,106
599616681447751808,108
599616681455437440,111
599616681463123200,116
599616681470808960,118
599616681478494720,118
599616681486180352,123
599616681493866112,123
599616681501551872,125
599616681509237632,130
599616681516923264,132
599616681524609024,135
599616681532294784,137
599616681539980544,142
599616681547666176,142
599616681555351936,145
599616681563037696,147
599616681570723456,147
599616681578409088,149
599616681586094848,152
599616681593780608,152
599616681601466368,147
599616681609152000,137
599616681616837760,125
599616681624523520,108
599616681632209280,96
599616681639894912,91
599616681647580672,89
599616681655266432,84
599616681662952192,82
599616681670637824,82
599616681678323584,87
599616681686009344,91
599616681693695104,91
599616681701380736,94
599616681709066496,96
599616681716752256,99
599616681724438016,101
599616681732123648,101
599616681739809408,103
599616681747495168,101
599616681755180928,101
599616681762866560,103
599616681770552320,103
599616681778238080,106
599616681785923840,106
599616681793609472,103
599616681801295208,103
599616681808979968,101
599616681816664704,103
599616681824349440,103
599616681832034176,103
599616681839719040,101
599616681847403776,101
599616681855088512,101
599616681862773248,99
599616681870457984,96
599616681878142720,89
599616681885827456,82
599616681893512192,77
599616681901197056,84
599616681908881792,113
599616681916566528,135
599616681924251264,137
599616681931936000,132
599616681939620736,116
599616681947305472,91
599616681954990336,87
599616681962675072,96
599616681970359808,96
599616681978044544,94
599616681985729280,99
599616681993414016,99
599616682001098752,101
599616682008783488,103
599616682016468352,84
599616682024153088,-9
599616682031837824,-118
599616682039522560,26
599616682047207296,543
599616682054892032,1075
599616682062576768,986
599616682070261504,282
599616682077946368,-164
599616682085631104,-55
599616682093315840,99
599616682101000576,89
599616682108685312,53
599616682116370048,50
599616682124054784,60
599616682131739648,65
599616682139424384,65
599616682147109120,72
599616682154793856,77
599616682162478592,82
599616682170163328,89
599616682177848064,94
599616682185532800,96
599616682193217664,103
599616682200902400,108
599616682208587136,108
599616682216271872,113
599616682223956608,118
599616682231641344,123
599616682239326080,125
599616682247010944,128
599616682254695680,135
599616682262380416,142
599616682270065152,145
599616682277749888,149
599616682285434624,154
599616682293119360,161
599616682300804096,181
599616682308488960,193
599616682316173696,183
599616682323858432,169
599616682331543168,159
599616682339227904,154
599616682346912640,149
599616682354597376,147
599616682362282167,145
599616682369967616,147
599616682377653120,149
599616682385338496,159
599616682393024000,169
599616682400709376,186
599616682408394880,198
599616682416080256,198
599616682423765760,198
599616682431451264,203
599616682439136640,203
599616682446822144,198
599616682454507520,200
599616682462193024,200
599616682469878400,198
599616682477563904,205
599616682485249408,212
599616682492934784,212
599616682500620288,210
599616682508305664,210
599616682515991168,205
599616682523676672,203
599616682531362048,203
599616682539047552,198
599616682546732928,193
599616682554418432,195
599616682562103808,198
599616682569789312,193
599616682577474816,190
599616682585160192,186
599616682592845696,178
599616682600531072,169
599616682608216576,159
599616682615901952,152
599616682623587456,152
599616682631272960,174
599616682638958336,198
599616682646643840,198
599616682654329216,188
599616682662014720,174
599616682669700096,147
599616682677385600,137
599616682685071104,145
599616682692756480,145
599616682700441984,140
599616682708127360,137
599616682715812864,137
599616682723498240,135
599616682731183744,132
599616682738869248,111
599616682746554624,7
599616682754240128,-91
599616682761925504,106
599616682769611008,655
599616682777296384,1102
599616682784981888,836
599616682792667392,91
599616682800352768,-203
599616682808038272,-24
599616682815723648,77
599616682823409152,96
599616682831094656,108
599616682838780032,77
599616682846465536,70
599616682854150912,91
599616682861836416,91
599616682869521792,87
599616682877207296,96
599616682884892800,101
599616682892578176,101
599616682900263680,108
599616682907949056,116
599616682915634560,116
599616682923319992,116
599616682931004928,123
599616682938689920,125
599616682946375040,125
599616682954060032,125
599616682961745024,128
599616682969430144,132
599616682977115136,137
599616682984800128,137
599616682992485120,140
599616683000170240,140
599616683007855232,140
599616683015540224,137
599616683023225344,137
599616683030910336,135
599616683038595328,118
599616683046280448,91
599616683053965440,72
599616683061650432,58
599616683069335552,48
599616683077020544,41
599616683084705536,36
599616683092390656,36
599616683100075648,33
599616683107760640,33
599616683115445632,41
599616683123130752,45
599616683130815744,45
599616683138500736,45
599616683146185856,50
599616683153870848,55
599616683161555840,55
599616683169240960,55
599616683176925952,58
599616683184610944,60
599616683192296064,62
599616683199981056,62
599616683207666048,62
599616683215351040,60
599616683223036160,58
599616683230721152,58
599616683238406144,58
599616683246091264,53
599616683253776256,50
599616683261461248,53
599616683269146368,53
599616683276831360,50
599616683284516352,48
599616683292201472,48
599616683299886464,45
599616683307571456,43
599616683315256448,38
599616683322941568,41
599616683330626560,65
599616683338311552,87
599616683345996672,89
599616683353681664,84
599616683361366656,67
599616683369051776,48
599616683376736768,43
599616683384421760,50
599616683392106880,53
599616683399791872,50
599616683407476864,48
599616683415161984,50
599616683422846976,53
599616683430531968,50
599616683438216960,41
599616683445902080,-26
599616683453587072,-140
599616683461272064,-53
599616683468957184,393
599616683476642176,874
599616683484327303,761
599616683492012800,70
599616683499698304,-299
599616683507383680,-118
599616683515069184,2
599616683522754560,9
599616683530440064,77
599616683538125440,65
599616683545810944,16
599616683553496448,41
599616683561181824,55
599616683568867328,41
599616683576552704,48
599616683584238208,60
599616683591923584,53
599616683599609088,58
599616683607294592,67
599616683614979968,67
599616683622665472,67
599616683630350848,77
599616683638036352,82
599616683645721856,84
599616683653407232,91
599616683661092736,91
599616683668778112,91
599616683676463616,99
599616683684148992,106
599616683691834496,106
599616683699520000,108
599616683707205376,111
599616683714890880,113
599616683722576256,111
599616683730261760,99
599616683737947136,79
599616683745632640,55
599616683753318144,29
599616683761003520,9
599616683768689024,-2
599616683776374400,-7
599616683784059904,-9
599616683791745280,-9
599616683799430784,-9
599616683807116288,-4
599616683814801664,-2
599616683822487168,0
599616683830172544,2
599616683837858048,7
599616683845543424,9
599616683853228928,9
599616683860914432,2
599616683868599808,-12
599616683876285312,-16
599616683883970688,-12
599616683891656192,-7
599616683899341568,-7
599616683907027072,-7
599616683914712576,-4
599616683922397952,-2
599616683930083456,0
599616683937768832,-4
599616683945454336,-7
599616683953139840,0
599616683960825216,0
599616683968510720,-7
599616683976196096,-2
599616683983881600,2
599616683991566976,-4
599616683999252480,-9
599616684006937984,2
599616684014623360,24
599616684022308864,38
599616684029994240,36
599616684037679744,31
599616684045365128,16
599616684053050624,-4
599616684060736128,-12
599616684068421504,-4
599616684076107008,-2
599616684083792384,-4
599616684091477888,-4
599616684099163264,-2
599616684106848768,-2
599616684114534272,-2
599616684122219648,-12
599616684129905152,-87
599616684137590528,-181
599616684145276032,-72
599616684152961408,357
599616684160646912,763
599616684168332416,580
599616684176017792,-48
599616684183703296,-294
599616684191388672,-118
599616684199074176,-41
599616684206759680,-24
599616684214445056,26
599616684222130560,0
599616684229815936,-24
599616684237501440,4
599616684245186816,9
599616684252872320,-14
599616684260557824,-24
599616684268243200,-21
599616684275928704,-16
599616684283614080,-14
599616684291299584,-14
599616684298984960,-12
599616684306670464,-9
599616684314355968,-4
599616684322041344,2
599616684329726848,4
599616684337412224,7
599616684345097728,14
599616684352783104,19
599616684360468608,21
599616684368154112,26
599616684375839488,31
599616684383524992,33
599616684391210368,36
599616684398895872,33
599616684406581248,24
599616684414266752,2
599616684421952256,-31
599616684429637632,-53
599616684437323136,-67
599616684445008512,-84
599616684452694016,-94
599616684460379392,-91
599616684468064896,-94
599616684475750400,-103
599616684483435776,-101
599616684491121280,-96
599616684498806656,-94
599616684506492160,-89
599616684514177664,-87
599616684521863040,-87
599616684529548544,-84
599616684537233920,-82
599616684544919424,-82
599616684552604800,-77
599616684560290304,-74
599616684567975808,-74
599616684575661184,-74
599616684583346688,-72
599616684591032064,-72
599616684598717568,-72
599616684606402953,-72
599616684614087936,-70
599616684621772928,-67
599616684629458048,-70
599616684637143040,-72
599616684644828032,-72
599616684652513152,-70
599616684660198144,-72
599616684667883136,-74
599616684675568128,-74
599616684683253248,-65
599616684690938240,-45
599616684698623232,-33
599616684706308352,-38
599616684713993344,-43
599616684721678336,-48
599616684729363456,-62
599616684737048448,-67
599616684744733440,-62
599616684752418560,-62
599616684760103552,-62
599616684767788544,-60
599616684775473536,-60
599616684783158656,-58
599616684790843648,-55
599616684798528640,-67
599616684806213760,-132
599616684813898752,-210
599616684821583744,-108
599616684829268864,258
599616684836953856,580
599616684844638848,389
599616684852323968,-123
599616684860008960,-280
599616684867693952,-118
599616684875379072,-62
599616684883064064,-60
599616684890749056,-24
599616684898434048,-38
599616684906119168,-60
599616684913804160,-41
599616684921489152,-29
599616684929174272,-41
599616684936859264,-36
599616684944544256,-19
599616684952229376,-19
599616684959914368,-21
599616684967599360,-16
599616684975284480,-12
599616684982969472,-7
599616684990654464,-2
599616684998339456,2
599616685006024576,7
599616685013709568,14
599616685021394560,16
599616685029079680,16
599616685036764672,21
599616685044449664,29
599616685052134784,31
599616685059819776,26
599616685067504768,31
599616685075189888,33
599616685082874880,26
599616685090559872,14
599616685098244864,4
599616685105929984,-7
599616685113614976,-24
599616685121299968,-33
599616685128985088,-31
599616685136670080,-33
599616685144355072,-36
599616685152040192,-29
599616685159725184,-29
599616685167410260,-29
599616685175095808,-26
599616685182781312,-21
599616685190466688,-16
599616685198152192,-16
599616685205837568,-14
599616685213523072,-14
599616685221208448,-9
599616685228893952,-7
599616685236579456,-9
599616685244264832,-9
599616685251950336,-9
599616685259635712,-12
599616685267321216,-12
599616685275006592,-9
599616685282692096,-9
599616685290377600,-4
599616685298062976,-4
599616685305748480,-9
599616685313433856,-4
599616685321119360,-2
599616685328804864,-4
599616685336490240,-2
599616685344175744,0
599616685351861120,-7
599616685359546624,-4
599616685367232000,9
599616685374917504,29
599616685382603008,36
599616685390288384,33
599616685397973888,31
599616685405659264,14
599616685413344768,2
599616685421030144,2
599616685428715648,4
599616685436401152,12
599616685444086528,14
599616685451772032,9
599616685459457408,14
599616685467142912,19
599616685474828288,14
599616685482513792,-4
599616685490199296,-67
599616685497884672,-123
599616685505570176,9
599616685513255552,364
599616685520941056,592
599616685528626432,338
599616685536311936,-96
599616685543997440,-157
599616685551682816,-16
599616685559368320,4
599616685567053696,16
599616685574739200,41
599616685582424576,19
599616685590110080,7
599616685597795584,26
599616685605480960,29
599616685613166464,21
599616685620851840,29
599616685628537344,36
599616685636222848,33
599616685643908224,33
599616685651593728,38
599616685659279104,41
599616685666964608,43
599616685674649984,45
599616685682335488,48
599616685690020992,50
599616685697706368,55
599616685705391872,58
599616685713077248,60
599616685720762752,65
599616685728448085,67
599616685736133120,65
599616685743818112,65
599616685751503232,67
599616685759188224,65
599616685766873216,60
599616685774558336,55
599616685782243328,38
599616685789928320,19
599616685797613312,12
599616685805298432,7
599616685812983424,4
599616685820668416,4
599616685828353536,4
599616685836038528,4
599616685843723520,9
599616685851408640,12
599616685859093632,12
599616685866778624,14
599616685874463744,16
599616685882148736,19
599616685889833728,24
599616685897518720,24
599616685905203840,26
599616685912888832,26
599616685920573824,31
599616685928258944,31
599616685935943936,31
599616685943628928,33
599616685951314048,38
599616685958999040,36
599616685966684032,36
599616685974369152,43
599616685982054144,43
599616685989739136,36
599616685997424256,41
599616686005109248,45
599616686012794240,43
599616686020479232,41
599616686028164352,43
599616686035849344,48
599616686043534336,48
599616686051219456,45
599616686058904448,48
599616686066589440,50
599616686074274560,48
599616686081959552,48
599616686089644544,53
599616686097329664,50
599616686105014656,48
599616686112699648,48
599616686120384640,48
599616686128069760,45
599616686135754752,43
599616686143439744,41
599616686151124864,50
599616686158809856,72
599616686166494848,82
599616686174179968,79
599616686181864960,84
599616686189549952,77
599616686197235072,53
599616686204920064,50
599616686212605056,60
599616686220290048,60
599616686227975168,58
599616686235660160,60
599616686243345152,60
599616686251030272,60
599616686258715264,62
599616686266400256,53
599616686274085376,-4
599616686281770368,-91
599616686289455392,-33
599616686297140864,304
599616686304826368,674
599616686312511744,589
599616686320197248,87
599616686327882624,-161
599616686335568128,-24
599616686343253504,58
599616686350939008,45
599616686358624512,67
599616686366309888,62
599616686373995392,55
599616686381680768,79
599616686389366272,87
599616686397051648,82
599616686404737152,84
599616686412422656,89
599616686420108032,89
599616686427793536,96
599616686435478912,103
599616686443164416,106
599616686450849920,108
599616686458535296,108
599616686466220800,111
599616686473906176,113
599616686481591680,116
599616686489277056,116
599616686496962560,116
599616686504648064,118
599616686512333440,123
599616686520018944,120
599616686527704320,116
599616686535389824,116
599616686543075200,116
599616686550760704,113
599616686558446208,113
599616686566131584,108
599616686573817088,99
599616686581502464,87
599616686589187968,77
599616686596873344,70
599616686604558848,67
599616686612244352,67
599616686619929728,72
599616686627615232,72
599616686635300608,70
599616686642986112,72
599616686650671488,77
599616686658356992,74
599616686666042496,74
599616686673727872,77
599616686681413376,74
599616686689098752,74
599616686696784256,79
599616686704469760,82
599616686712155136,79
599616686719840640,84
599616686727526016,87
599616686735211520,87
599616686742896896,89
599616686750582400,94
599616686758267904,96
599616686765953280,101
599616686773638784,99
599616686781324160,99
599616686789009664,101
599616686796695040,101
599616686804380544,99
599616686812066048,101
599616686819751424,103
599616686827436928,103
599616686835122304,103
599616686842807808,103
599616686850493221,106
599616686858178176,108
599616686865863168,106
599616686873548288,108
599616686881233280,113
599616686888918272,111
599616686896603392,108
599616686904288384,113
599616686911973376,123
599616686919658368,135
599616686927343488,140
599616686935028480,137
599616686942713472,137
599616686950398592,140
599616686958083584,145
599616686965768576,147
599616686973453696,145
599616686981138688,145
599616686988823680,147
599616686996508800,145
599616687004193792,140
599616687011878784,142
599616687019563776,140
599616687027248896,140
599616687034933888,140
599616687042618880,140
599616687050304000,142
599616687057988992,149
599616687065673984,152
599616687073359104,147
599616687081044096,147
599616687088729088,147
599616687096414208,145
599616687104099200,142
599616687111784192,145
599616687119469312,142
599616687127154304,152
599616687134839296,178
599616687142524288,181
599616687150209408,166
599616687157894400,181
599616687165579392,210
599616687173264512,212
599616687180949504,205
599616687188634496,200
599616687196319616,188
599616687204004608,186
599616687211689600,198
599616687219374720,200
599616687227059712,193
599616687234744704,188
599616687242429696,186
599616687250114816,183
599616687257799808,186
599616687265484800,166
599616687273169920,79
599616687280854912,-21
599616687288539904,89
599616687296225024,536
599616687303910016,988
599616687311595008,867
599616687319280128,253
599616687326965120,-62
599616687334650112,72
599616687342335104,152
599616687350020224,113
599616687357705216,116
599616687365390208,116
599616687373075328,101
599616687380760320,111
599616687388445312,118
599616687396130432,113
599616687403815424,111
599616687411500528,113
599616687419186048,113
599616687426871552,113
599616687434556928,116
599616687442242432,116
599616687449927808,116
599616687457613312,116
599616687465298688,113
599616687472984192,111
599616687480669696,108
599616687488355072,108
599616687496040576,106
599616687503725952,103
599616687511411456,103
599616687519096832,99
599616687526782336,96
599616687534467840,94
599616687542153216,91
599616687549838720,89
599616687557524096,91
599616687565209600,94
599616687572895104,96
599616687580580480,91
599616687588265984,84
599616687595951360,79
599616687603636864,77
599616687611322240,77
599616687619007744,72
599616687626693248,70
599616687634378624,72
599616687642064128,74
599616687649749504,74
599616687657435008,72
599616687665120384,72
599616687672805888,72
599616687680491392,74
599616687688176768,74
599616687695862272,72
599616687703547648,74
599616687711233152,79
599616687718918528,79
599616687726604032,77
599616687734289536,77
599616687741974912,79
599616687749660416,77
599616687757345792,77
599616687765031296,77
599616687772716672,79
599616687780402176,77
599616687788087680,74
599616687795773056,74
599616687803458560,70
599616687811143936,67
599616687818829440,70
599616687826514816,70
599616687834200320,70
599616687841885824,70
599616687849571200,67
599616687857256704,67
599616687864942080,70
599616687872627584,72
599616687880313088,70
599616687887998464,70
599616687895683968,72
599616687903369344,70
599616687911054848,67
599616687918740224,70
599616687926425728,72
599616687934111232,67
599616687941796608,67
599616687949482112,70
599616687957167488,70
599616687964852992,67
599616687972538353,70
599616687980223360,70
599616687987908352,70
599616687995593472,70
599616688003278464,70
599616688010963456,67
599616688018648576,67
599616688026333568,65
599616688034018560,65
599616688041703552,65
599616688049388672,62
599616688057073664,62
599616688064758656,62
599616688072443776,62
599616688080128768,60
599616688087813760,62
599616688095498880,62
599616688103183872,58
599616688110868864,55
599616688118553984,48
599616688126238976,43
599616688133923968,50
599616688141608960,77
599616688149294080,96
599616688156979072,94
599616688164664064,87
599616688172349184,74
599616688180034176,55
599616688187719168,53
599616688195404288,65
599616688203089280,67
599616688210774272,65
599616688218459392,67
599616688226144384,67
599616688233829376,65
599616688241514496,62
599616688249199488,21
599616688256884480,-96
599616688264569472,-149
599616688272254592,123
599616688279939584,691
599616688287624576,1034
599616688295309696,650
599616688302994688,-9
599616688310679680,-152
599616688318364800,29
599616688326049792,50
599616688333734784,-2
599616688341419904,0
599616688349104896,7
599616688356789888,2
599616688364474880,9
599616688372160000,14
599616688379844992,14
599616688387529984,19
599616688395215104,24
599616688402900096,24
599616688410585088,29
599616688418270208,33
599616688425955200,36
599616688433640192,38
599616688441325312,41
599616688449010304,38
599616688456695296,41
599616688464380288,45
599616688472065408,45
599616688479750400,43
599616688487435392,45
599616688495120512,45
599616688502805504,43
599616688510490496,43
599616688518175616,43
599616688525860608,41
599616688533545660,41
599616688541231104,45
599616688548916608,45
599616688556601984,43
599616688564287488,38
599616688571972864,31
599616688579658368,26
599616688587343744,24
599616688595029248,19
599616688602714752,16
599616688610400128,19
599616688618085632,19
599616688625771008,21
599616688633456512,24
599616688641141888,26
599616688648827392,26
599616688656512896,29
599616688664198272,31
599616688671883776,29
599616688679569152,29
599616688687254656,31
599616688694940160,33
599616688702625536,33
599616688710311040,33
599616688717996416,33
599616688725681920,36
599616688733367296,36
599616688741052800,33
599616688748738304,33
599616688756423680,36
599616688764109184,36
599616688771794560,33
599616688779480064,33
599616688787165440,33
599616688794850944,36
599616688802536448,33
599616688810221824,31
599616688817907328,29
599616688825592704,31
599616688833278208,31
599616688840963584,33
599616688848649088,31
599616688856334592,31
599616688864019968,33
599616688871705472,33
599616688879390848,33
599616688887076352,33
599616688894761728,33
599616688902447232,36
599616688910132736,36
599616688917818112,36
599616688925503616,36
599616688933188992,36
599616688940874496,36
599616688948559872,36
599616688956245376,36
599616688963930880,38
599616688971616256,38
599616688979301760,38
599616688986987136,38
599616688994672640,38
599616689002358144,38
599616689010043520,36
599616689017729024,33
599616689025414400,38
599616689033099904,38
599616689040785280,33
599616689048470784,31
599616689056156288,31
599616689063841664,26
599616689071527168,16
599616689079212544,19
599616689086898048,38
599616689094583485,65
599616689102268416,72
599616689109953408,67
599616689117638528,55
599616689125323520,38
599616689133008512,24
599616689140693632,31
599616689148378624,36
599616689156063616,31
599616689163748608,31
599616689171433728,33
599616689179118720,31
599616689186803712,31
599616689194488832,9
599616689202173824,-91
599616689209858816,-190
599616689217543936,-14
599616689225228928,512
599616689232913920,993
599616689240599040,812
599616689248284032,99
599616689255969024,-239
599616689263654016,-72
599616689271339136,29
599616689279024128,-4
599616689286709120,-12
599616689294394240,-14
599616689302079232,-14
599616689309764224,-7
599616689317449344,-7
599616689325134336,-2
599616689332819328,4
599616689340504448,4
599616689348189440,7
599616689355874432,14
599616689363559552,16
599616689371244544,16
599616689378929536,24
599616689386614528,26
599616689394299648,31
599616689401984640,33
599616689409669632,36
599616689417354752,41
599616689425039744,48
599616689432724736,48
599616689440409856,50
599616689448094848,53
599616689455779840,53
599616689463464960,50
599616689471149952,53
599616689478834944,58
599616689486519936,55
599616689494205056,48
599616689501890048,38
599616689509575040,24
599616689517260160,9
599616689524945152,0
599616689532630144,-4
599616689540315264,-12
599616689548000256,-16
599616689555685248,-19
599616689563370368,-16
599616689571055360,-12
599616689578740352,-9
599616689586425344,-9
599616689594110464,-7
599616689601795456,-2
599616689609480448,0
599616689617165568,2
599616689624850560,4
599616689632535552,7
599616689640220672,9
599616689647905664,12
599616689655590792,14
599616689663276288,12
599616689670961792,14
599616689678647168,14
599616689686332672,16
599616689694018048,14
599616689701703552,12
599616689709388928,14
599616689717074432,12
599616689724759936,9
599616689732445312,9
599616689740130816,12
599616689747816192,12
599616689755501696,12
599616689763187072,12
599616689770872576,12
599616689778558080,9
599616689786243456,9
599616689793928960,12
599616689801614336,12
599616689809299840,12
599616689816985344,9
599616689824670720,7
599616689832356224,9
599616689840041600,12
599616689847727104,9
599616689855412480,12
599616689863097984,14
599616689870783488,14
599616689878468864,12
599616689886154368,12
599616689893839744,12
599616689901525248,9
599616689909210624,4
599616689916896128,-4
599616689924581632,9
599616689932267008,38
599616689939952512,53
599616689947637888,43
599616689955323392,33
599616689963008768,21
599616689970694272,4
599616689978379776,4
599616689986065152,16
599616689993750656,14
599616690001436032,9
599616690009121536,12
599616690016806912,14
599616690024492416,12
599616690032177920,7
599616690039863296,-38
599616690047548800,-149
599616690055234176,-161
599616690062919680,157
599616690070605184,657
599616690078290560,766
599616690085976064,217
599616690093661440,-302
599616690101346944,-227
599616690109032320,-43
599616690116717824,-33
599616690124403328,16
599616690132088704,36
599616690139774208,-19
599616690147459584,-9
599616690155145088,19
599616690162830464,9
599616690170515968,2
599616690178201472,14
599616690185886848,14
599616690193572352,16
599616690201257728,26
599616690208943232,29
599616690216628621,31
599616690224313600,33
599616690231998592,36
599616690239683712,36
599616690247368704,43
599616690255053696,45
599616690262738816,48
599616690270423808,53
599616690278108800,60
599616690285793792,60
599616690293478912,62
599616690301163904,70
599616690308848896,67
599616690316534016,65
599616690324219008,62
599616690331904000,48
599616690339589120,21
599616690347274112,-4
599616690354959104,-26
599616690362644224,-45
599616690370329216,-58
599616690378014208,-62
599616690385699200,-67
599616690393384320,-65
599616690401069312,-62
599616690408754304,-60
599616690416439424,-55
599616690424124416,-55
599616690431809408,-58
599616690439494528,-55
599616690447179520,-50
599616690454864512,-45
599616690462549632,-45
599616690470234624,-41
599616690477919616,-36
599616690485604736,-38
599616690493289728,-43
599616690500974720,-41
599616690508659712,-36
599616690516344832,-43
599616690524029824,-48
599616690531714816,-41
599616690539399936,-38
599616690547084928,-43
599616690554769920,-45
599616690562455040,-45
599616690570140032,-48
599616690577825024,-50
599616690585510144,-50
599616690593195136,-45
599616690600880128,-48
599616690608565120,-50
599616690616250240,-53
599616690623935232,-58
599616690631620224,-55
599616690639305344,-53
599616690646990336,-53
599616690654675328,-50
599616690662360448,-50
599616690670045440,-53
599616690677730432,-55
599616690685415552,-60
599616690693100544,-60
599616690700785536,-41
599616690708470528,-19
599616690716155648,-16
599616690723840640,-24
599616690731525632,-33
599616690739210752,-50
599616690746895744,-55
599616690754580736,-58
599616690762265856,-60
599616690769950848,-55
599616690777635928,-55
599616690785321472,-62
599616690793006976,-58
599616690800692352,-53
599616690808377856,-67
599616690816063232,-125
599616690823748736,-219
599616690831434112,-166
599616690839119616,176
599616690846805120,541
599616690854490496,418
599616690862176000,-123
599616690869861376,-374
599616690877546880,-207
599616690885232256,-111
599616690892917760,-101
599616690900603264,-50
599616690908288640,-65
599616690915974144,-96
599616690923659520,-77
599616690931345024,-65
599616690939030528,-72
599616690946715904,-65
599616690954401408,-60
599616690962086784,-62
599616690969772288,-55
599616690977457664,-50
599616690985143168,-53
599616690992828672,-43
599616691000514048,-38
599616691008199552,-36
599616691015884928,-29
599616691023570432,-29
599616691031255808,-26
599616691038941312,-16
599616691046626816,-14
599616691054312192,-12
599616691061997696,-7
599616691069683072,-2
599616691077368576,-4
599616691085053952,-7
599616691092739456,-4
599616691100424960,-12
599616691108110336,-33
599616691115795840,-55
599616691123481216,-74
599616691131166720,-99
599616691138852096,-111
599616691146537600,-108
599616691154223104,-111
599616691161908480,-118
599616691169593984,-116
599616691177279360,-111
599616691184964864,-108
599616691192650240,-103
599616691200335744,-103
599616691208021248,-101
599616691215706624,-94
599616691223392128,-91
599616691231077504,-91
599616691238763008,-87
599616691246448512,-84
599616691254133888,-79
599616691261819392,-74
599616691269504768,-77
599616691277190272,-72
599616691284875648,-67
599616691292561152,-70
599616691300246656,-70
599616691307932032,-62
599616691315617536,-60
599616691323302912,-62
599616691330988416,-65
599616691338673753,-65
599616691346358784,-60
599616691354043776,-55
599616691361728896,-60
599616691369413888,-60
599616691377098880,-53
599616691384784000,-53
599616691392468992,-55
599616691400153984,-53
599616691407838976,-53
599616691415524096,-60
599616691423209088,-53
599616691430894080,-33
599616691438579200,-19
599616691446264192,-24
599616691453949184,-21
599616691461634304,-26
599616691469319296,-43
599616691477004288,-50
599616691484689408,-43
599616691492374400,-38
599616691500059392,-38
599616691507744384,-36
599616691515429504,-33
599616691523114496,-33
599616691530799488,-31
599616691538484608,-36
599616691546169600,-82
599616691553854592,-161
599616691561539712,-118
599616691569224704,176
599616691576909696,505
599616691584594816,422
599616691592279808,-33
599616691599964800,-256
599616691607649920,-123
599616691615334912,-36
599616691623019904,-33
599616691630704896,0
599616691638390016,-4
599616691646075008,-24
599616691653760000,-14
599616691661445120,-7
599616691669130112,-12
599616691676815104,-7
599616691684500224,0
599616691692185216,-2
599616691699870208,0
599616691707555328,4
599616691715240320,4
599616691722925312,9
599616691730610304,16
599616691738295424,19
599616691745980416,19
599616691753665408,24
599616691761350528,29
599616691769035520,31
599616691776720512,36
599616691784405632,41
599616691792090624,43
599616691799775616,48
599616691807460736,48
599616691815145728,45
599616691822830720,43
599616691830515712,38
599616691838200832,21
599616691845885824,4
599616691853570816,-12
599616691861255936,-26
599616691868940928,-33
599616691876625920,-31
599616691884311040,-33
599616691891996032,-36
599616691899681060,-36
599616691907366528,-29
599616691915052032,-26
599616691922737408,-29
599616691930422912,-24
599616691938108288,-16
599616691945793792,-21
599616691953479168,-24
599616691961164672,-14
599616691968850176,-9
599616691976535552,-9
599616691984221056,-4
599616691991906432,-2
599616691999591936,-2
599616692007277312,-2
599616692014962816,0
599616692022648320,2
599616692030333696,2
599616692038019200,2
599616692045704576,7
599616692053390080,7
599616692061075584,7
599616692068760960,4
599616692076446464,4
599616692084131840,7
599616692091817344,7
599616692099502720,4
599616692107188224,7
599616692114873728,9
599616692122559104,9
599616692130244608,12
599616692137929984,14
599616692145615488,9
599616692153300864,7
599616692160986368,7
599616692168671872,7
599616692176357248,24
599616692184042752,43
599616692191728128,48
599616692199413632,53
599616692207099008,60
599616692214784512,43
599616692222470016,29
599616692230155392,36
599616692237840896,41
599616692245526272,36
599616692253211776,36
599616692260897152,41
599616692268582656,43
599616692276268160,41
599616692283953536,38
599616692291639040,14
599616692299324416,-67
599616692307009920,-103
599616692314695296,111
599616692322380800,502
599616692330066304,630
599616692337751680,248
599616692345437184,-152
599616692353122560,-125
599616692360808064,12
599616692368493568,26
599616692376178944,48
599616692383864448,55
599616692391549824,31
599616692399235328,33
599616692406920704,48
599616692414606208,43
599616692422291712,43
599616692429977088,50
599616692437662592,50
599616692445347968,53
599616692453033472,60
599616692460718885,60
599616692468403840,58
599616692476088832,62
599616692483773952,67
599616692491458944,70
599616692499143936,70
599616692506829056,74
599616692514514048,79
599616692522199040,79
599616692529884032,82
599616692537569152,87
599616692545254144,91
599616692552939136,89
599616692560624256,89
599616692568309248,87
599616692575994240,84
599616692583679360,77
599616692591364352,65
599616692599049344,50
599616692606734464,41
599616692614419456,33
599616692622104448,29
599616692629789440,26
599616692637474560,29
599616692645159552,26
599616692652844544,26
599616692660529664,29
599616692668214656,31
599616692675899648,36
599616692683584768,43
599616692691269760,53
599616692698954752,55
599616692706639872,55
599616692714324864,58
599616692722009856,60
599616692729694976,62
599616692737379968,65
599616692745064960,70
599616692752749952,72
599616692760435072,70
599616692768120064,74
599616692775805056,87
599616692783490176,96
599616692791175168,101
599616692798860160,106
599616692806545280,106
599616692814230272,99
599616692821915264,99
599616692829600384,101
599616692837285376,99
599616692844970368,96
599616692852655360,94
599616692860340480,94
599616692868025472,94
599616692875710464,91
599616692883395584,91
599616692891080576,89
599616692898765568,87
599616692906450688,84
599616692914135680,84
599616692921820672,87
599616692929505792,91
599616692937190784,91
599616692944875776,87
599616692952560768,87
599616692960245888,87
599616692967930880,84
599616692975615872,82
599616692983300992,84
599616692990985984,84
599616692998670976,77
599616693006356096,77
599616693014041088,84
599616693021726192,87
599616693029411712,84
599616693037097216,79
599616693044782592,74
599616693052468096,70
599616693060153472,82
599616693067838976,108
599616693075524352,116
599616693083209856,108
599616693090895360,103
599616693098580736,87
599616693106266240,72
599616693113951616,77
599616693121637120,79
599616693129322496,74
599616693137008000,74
599616693144693504,77
599616693152378880,72
599616693160064384,70
599616693167749760,70
599616693175435264,31
599616693183120768,-72
599616693190806144,-101
599616693198491648,164
599616693206177024,647
599616693213862528,853
599616693221547904,427
599616693229233408,-94
599616693236918912,-103
599616693244604288,60
599616693252289792,58
599616693259975168,50
599616693267660672,60
599616693275346048,43
599616693283031552,43
599616693290717056,55
599616693298402432,55
599616693306087936,55
599616693313773312,60
599616693321458816,60
599616693329144192,62
599616693336829696,65
599616693344515200,67
599616693352200576,67
599616693359886080,67
599616693367571456,72
599616693375256960,74
599616693382942336,77
599616693390627840,77
599616693398313344,77
599616693405998720,79
599616693413684224,82
599616693421369600,79
599616693429055104,79
599616693436740608,82
599616693444425984,77
599616693452111488,74
599616693459796864,74
599616693467482368,77
599616693475167744,74
599616693482853248,67
599616693490538752,55
599616693498224128,48
599616693505909632,43
599616693513595008,38
599616693521280512,36
599616693528965888,38
599616693536651392,36
599616693544336896,33
599616693552022272,38
599616693559707776,41
599616693567393152,41
599616693575078656,41
599616693582764021,43
599616693590449024,48
599616693598134016,45
599616693605819136,45
599616693613504128,48
599616693621189120,48
599616693628874240,48
599616693636559232,50
599616693644244224,50
599616693651929216,53
599616693659614336,55
599616693667299328,55
599616693674984320,55
599616693682669440,55
599616693690354432,55
599616693698039424,53
599616693705724544,55
599616693713409536,55
599616693721094528,53
599616693728779648,50
599616693736464640,50
599616693744149632,50
599616693751834624,50
599616693759519744,48
599616693767204736,50
599616693774889728,48
599616693782574848,45
599616693790259840,48
599616693797944832,48
599616693805629952,45
599616693813314944,45
599616693820999936,48
599616693828685056,48
599616693836370048,43
599616693844055040,43
599616693851740160,41
599616693859425152,38
599616693867110144,38
599616693874795136,38
599616693882480256,36
599616693890165248,33
599616693897850240,33
599616693905535360,36
599616693913220352,36
599616693920905344,36
599616693928590464,36
599616693936275456,33
599616693943960448,33
599616693951645568,33
599616693959330560,31
599616693967015552,26
599616693974700544,24
599616693982385664,19
599616693990070656,21
599616693997755648,48
599616694005440768,67
599616694013125760,62
599616694020810752,58
599616694028495872,48
599616694036180864,26
599616694043865856,21
599616694051550976,31
599616694059235968,31
599616694066920960,26
599616694074605952,31
599616694082291072,33
599616694089976064,31
599616694097661056,29
599616694105346176,-4
599616694113031168,-116
599616694120716160,-174
599616694128401280,82
599616694136086272,621
599616694143771328,947
599616694151456896,577
599616694159142400,-60
599616694166827776,-186
599616694174513280,2
599616694182198656,29
599616694189884160,-16
599616694197569536,-14
599616694205255040,-14
599616694212940544,-16
599616694220625920,-7
599616694228311424,-2
599616694235996800,-2
599616694243682304,2
599616694251367680,4
599616694259053184,4
599616694266738688,7
599616694274424064,12
599616694282109568,14
599616694289794944,16
599616694297480448,19
599616694305165952,24
599616694312851328,24
599616694320536832,24
599616694328222208,24
599616694335907712,26
599616694343593088,26
599616694351278592,24
599616694358964096,24
599616694366649472,24
599616694374334976,24
599616694382020352,24
599616694389705856,24
599616694397391232,26
599616694405076736,29
599616694412762240,26
599616694420447616,14
599616694428133120,7
599616694435818496,4
599616694443504000,0
599616694451189376,-2
599616694458874880,-4
599616694466560384,-4
599616694474245760,-2
599616694481931264,0
599616694489616640,2
599616694497302144,4
599616694504987520,4
599616694512673024,7
599616694520358528,7
599616694528043904,9
599616694535729408,9
599616694543414784,12
599616694551100288,14
599616694558785664,14
599616694566471168,12
599616694574156672,14
599616694581842048,16
599616694589527552,14
599616694597212928,12
599616694604898432,14
599616694612583936,19
599616694620269312,16
599616694627954816,16
599616694635640192,19
599616694643325696,19
599616694651011072,16
599616694658696576,14
599616694666382080,14
599616694674067456,16
599616694681752960,14
599616694689438336,14
599616694697123840,16
599616694704809153,14
599616694712494720,12
599616694720180224,14
599616694727865600,16
599616694735551104,16
599616694743236480,14
599616694750921984,14
599616694758607360,12
599616694766292864,14
599616694773978368,14
599616694781663744,12
599616694789349248,14
599616694797034624,14
599616694804720128,14
599616694812405504,12
599616694820091008,14
599616694827776512,14
599616694835461888,14
599616694843147392,16
599616694850832768,16
599616694858518272,14
599616694866203776,12
599616694873889152,12
599616694881574656,14
599616694889260032,14
599616694896945536,9
599616694904630912,7
599616694912316416,2
599616694920001920,-4
599616694927687296,0
599616694935372800,24
599616694943058176,48
599616694950743680,45
599616694958429056,38
599616694966114560,33
599616694973800064,14
599616694981485440,0
599616694989170944,7
599616694996856320,12
599616695004541824,7
599616695012227200,9
599616695019912704,12
599616695027598208,9
599616695035283584,9
599616695042969088,-19
599616695050654464,-128
599616695058339968,-210
599616695066025344,4
599616695073710848,560
599616695081396352,998
599616695089081728,732
599616695096767232,21
599616695104452608,-241
599616695112138112,-62
599616695119823488,14
599616695127508992,-31
599616695135194496,-43
599616695142879872,-41
599616695150565376,-38
599616695158250752,-33
599616695165936256,-26
599616695173621760,-21
599616695181307136,-19
599616695188992640,-14
599616695196678016,-12
599616695204363520,-9
599616695212048896,-4
599616695219734400,0
599616695227419904,2
599616695235105280,7
599616695242790784,14
599616695250476160,16
599616695258161664,16
599616695265846978,16
599616695273532032,21
599616695281217024,24
599616695288902144,24
599616695296587136,29
599616695304272128,33
599616695311957248,31
599616695319642240,31
599616695327327232,31
599616695335012224,26
599616695342697344,24
599616695350382336,21
599616695358067328,4
599616695365752448,-14
599616695373437440,-21
599616695381122432,-26
599616695388807552,-31
599616695396492544,-33
599616695404177536,-33
599616695411862656,-33
599616695419547648,-31
599616695427232640,-26
599616695434917632,-26
599616695442602752,-24
599616695450287744,-21
599616695457972736,-19
599616695465657856,-14
599616695473342848,-12
599616695481027840,-12
599616695488712960,-9
599616695496397952,-9
599616695504082944,-7
599616695511768064,-4
599616695519453056,-4
599616695527138048,-7
599616695534823168,-4
599616695542508160,0
599616695550193152,0
599616695557878144,-4
599616695565563264,-4
599616695573248256,-4
599616695580933248,-2
599616695588618368,-2
599616695596303360,-2
599616695603988352,-4
599616695611673472,-4
599616695619358464,-2
599616695627043456,-2
599616695634728576,-2
599616695642413568,-4
599616695650098560,-2
599616695657783552,-2
599616695665468672,-4
599616695673153664,-4
599616695680838656,-2
599616695688523776,-2
599616695696208768,-2
599616695703893760,-2
599616695711578880,-2
599616695719263872,-2
599616695726948864,-4
599616695734633984,-4
599616695742318976,-12
599616695750003968,-12
599616695757688960,9
599616695765374080,36
599616695773059072,36
599616695780744064,26
599616695788429184,19
599616695796114176,2
599616695803799168,-9
599616695811484288,-4
599616695819169280,0
599616695826854285,-4
599616695834539776,-7
599616695842225280,0
599616695849910656,0
599616695857596160,-4
599616695865281536,-14
599616695872967040,-87
599616695880652416,-198
599616695888337920,-99
599616695896023424,343
599616695903708800,775
599616695911394304,611
599616695919079680,-55
599616695926765184,-352
599616695934450560,-149
599616695942136064,-45
599616695949821568,-33
599616695957506944,26
599616695965192448,7
599616695972877824,-31
599616695980563328,-2
599616695988248832,7
599616695995934208,-7
599616696003619712,0
599616696011305088,9
599616696018990592,7
599616696026675968,9
599616696034361472,16
599616696042046976,19
599616696049732352,21
599616696057417856,26
599616696065103232,31
599616696072788736,36
599616696080474112,41
599616696088159616,45
599616696095845120,50
599616696103530496,58
599616696111216000,65
599616696118901376,65
599616696126586880,70
599616696134272256,77
599616696141957760,77
599616696149643264,74
599616696157328640,67
599616696165014144,50
599616696172699520,19
599616696180385024,-14
599616696188070400,-38
599616696195755904,-50
599616696203441408,-65
599616696211126784,-70
599616696218812288,-65
599616696226497664,-65
599616696234183168,-65
599616696241868544,-60
599616696249554048,-58
599616696257239552,-53
599616696264924928,-50
599616696272610432,-53
599616696280295808,-50
599616696287981312,-45
599616696295666816,-41
599616696303352192,-41
599616696311037696,-38
599616696318723072,-36
599616696326408576,-36
599616696334093952,-31
599616696341779456,-29
599616696349464960,-33
599616696357150336,-31
599616696364835840,-31
599616696372521216,-36
599616696380206720,-36
599616696387892110,-33
599616696395577088,-38
599616696403262080,-36
599616696410947200,-33
599616696418632192,-38
599616696426317184,-43
599616696434002304,-38
599616696441687296,-33
599616696449372288,-38
599616696457057280,-41
599616696464742400,-43
599616696472427392,-45
599616696480112384,-45
599616696487797504,-50
599616696495482496,-45
599616696503167488,-16
599616696510852608,0
599616696518537600,-7
599616696526222592,-9
599616696533907712,-21
599616696541592704,-38
599616696549277696,-43
599616696556962816,-36
599616696564647808,-36
599616696572332800,-41
599616696580017792,-38
599616696587702912,-33
599616696595387904,-38
599616696603072896,-53
599616696610758016,-74
599616696618443008,-142
599616696626128000,-227
599616696633813120,-99
599616696641498112,314
599616696649183104,621
599616696656868224,348
599616696664553216,-217
599616696672238208,-343
599616696679923200,-149
599616696687608320,-89
599616696695293312,-60
599616696702978304,-19
599616696710663424,-53
599616696718348416,-67
599616696726033408,-38
599616696733718528,-41
599616696741403520,-53
599616696749088512,-38
599616696756773632,-33
599616696764458624,-33
599616696772143616,-29
599616696779828608,-29
599616696787513728,-29
599616696795198720,-21
599616696802883712,-14
599616696810568832,-9
599616696818253824,-7
599616696825938816,0
599616696833623936,7
599616696841308928,9
599616696848993920,14
599616696856679040,26
599616696864364032,29
599616696872049024,24
599616696879734144,29
599616696887419136,33
599616696895104128,29
599616696902789120,14
599616696910474240,-7
599616696918159232,-33
599616696925844224,-55
599616696933529344,-74
599616696941214336,-84
599616696948899421,-84
599616696956584960,-84
599616696964270464,-87
599616696971955840,-87
599616696979641344,-82
599616696987326720,-77
599616696995012224,-79
599616697002697600,-77
599616697010383104,-72
599616697018068608,-74
599616697025753984,-70
599616697033439488,-60
599616697041124864,-70
599616697048810368,-72
599616697056495744,-62
599616697064181248,-60
599616697071866752,-62
599616697079552128,-65
599616697087237632,-70
599616697094923008,-70
599616697102608512,-67
599616697110294016,-72
599616697117979392,-74
599616697125664896,-67
599616697133350272,-65
599616697141035776,-67
599616697148721152,-72
599616697156406656,-70
599616697164092160,-65
599616697171777536,-67
599616697179463040,-70
599616697187148416,-67
599616697194833920,-67
599616697202519296,-70
599616697210204800,-70
599616697217890304,-55
599616697225575680,-36
599616697233261184,-33
599616697240946560,-41
599616697248632064,-53
599616697256317440,-70
599616697264002944,-74
599616697271688448,-70
599616697279373824,-67
599616697287059328,-70
599616697294744704,-70
599616697302430208,-65
599616697310115584,-65
599616697317801088,-62
599616697325486592,-67
599616697333171968,-108
599616697340857472,-190
599616697348542848,-178
599616697356228352,84
599616697363913728,447
599616697371599232,451
599616697379284736,2
599616697386970112,-306
599616697394655616,-200
599616697402340992,-87
599616697410026496,-79
599616697417712000,-41
599616697425397376,-41
599616697433082880,-70
599616697440768256,-58
599616697448453760,-43
599616697456139136,-48
599616697463824640,-45
599616697471510144,-38
599616697479195520,-38
599616697486881024,-36
599616697494566400,-31
599616697502251904,-26
599616697509937246,-26
599616697517622272,-21
599616697525307264,-14
599616697532992384,-12
599616697540677376,-7
599616697548362368,0
599616697556047488,4
599616697563732480,7
599616697571417472,14
599616697579102464,14
599616697586787584,14
599616697594472576,19
599616697602157568,24
599616697609842688,19
599616697617527680,9
599616697625212672,-7
599616697632897792,-24
599616697640582784,-38
599616697648267776,-55
599616697655952896,-65
599616697663637888,-67
599616697671322880,-70
599616697679007872,-67
599616697686692992,-62
599616697694377984,-60
599616697702062976,-58
599616697709748096,-55
599616697717433088,-53
599616697725118080,-48
599616697732803200,-45
599616697740488192,-45
599616697748173184,-45
599616697755858304,-43
599616697763543296,-38
599616697771228288,-36
599616697778913408,-38
599616697786598400,-33
599616697794283392,-31
599616697801968384,-31
599616697809653504,-31
599616697817338496,-29
599616697825023488,-24
599616697832708608,-29
599616697840393600,-29
599616697848078592,-26
599616697855763712,-26
599616697863448704,-26
599616697871133696,-26
599616697878818816,-24
599616697886503808,-24
599616697894188800,-29
599616697901873792,-31
599616697909558912,-33
599616697917243904,-31
599616697924928896,-16
599616697932614016,2
599616697940299008,9
599616697947984000,2
599616697955669120,-4
599616697963354112,-19
599616697971039104,-29
599616697978724224,-26
599616697986409216,-19
599616697994094208,-19
599616698001779200,-19
599616698009464320,-19
599616698017149312,-19
599616698024834304,-16
599616698032519424,-14
599616698040204416,-41
599616698047889408,-116
599616698055574528,-154
599616698063259520,36
599616698070944553,420
599616698078630016,575
599616698086315520,222
599616698094000896,-188
599616698101686400,-181
599616698109371776,-38
599616698117057280,-16
599616698124742656,2
599616698132428160,14
599616698140113664,-12
599616698147799040,-12
599616698155484544,4
599616698163169920,0
599616698170855424,0
599616698178540800,7
599616698186226304,7
599616698193911808,7
599616698201597184,14
599616698209282688,19
599616698216968064,16
599616698224653568,21
599616698232339072,29
599616698240024448,29
599616698247709952,33
599616698255395328,38
599616698263080832,41
599616698270766208,45
599616698278451712,50
599616698286137216,53
599616698293822592,58
599616698301508096,62
599616698309193472,60
599616698316878976,55
599616698324564352,55
599616698332249856,48
599616698339935360,24
599616698347620736,2
599616698355306240,-2
599616698362991616,-9
599616698370677120,-21
599616698378362496,-24
599616698386048000,-19
599616698393733504,-19
599616698401418880,-21
599616698409104384,-19
599616698416789760,-14
599616698424475264,-12
599616698432160640,-7
599616698439846144,-7
599616698447531648,-4
599616698455217024,0
599616698462902528,2
599616698470587904,2
599616698478273408,4
599616698485958784,9
599616698493644288,9
599616698501329792,12
599616698509015168,14
599616698516700672,16
599616698524386048,14
599616698532071552,14
599616698539757056,16
599616698547442432,19
599616698555127936,16
599616698562813312,19
599616698570498816,24
599616698578184192,24
599616698585869696,24
599616698593555200,26
599616698601240576,31
599616698608926080,36
599616698616611456,38
599616698624296960,33
599616698631982378,31
599616698639667328,33
599616698647352320,33
599616698655037440,33
599616698662722432,33
599616698670407424,33
599616698678092544,33
599616698685777536,45
599616698693462528,67
599616698701147520,74
599616698708832640,70
599616698716517632,70
599616698724202624,58
599616698731887744,41
599616698739572736,38
599616698747257728,45
599616698754942848,43
599616698762627840,45
599616698770312832,48
599616698777997952,43
599616698785682944,41
599616698793367936,43
599616698801052928,21
599616698808738048,-65
599616698816423040,-125
599616698824108032,55
599616698831793152,493
599616698839478144,758
599616698847163136,447
599616698854848256,-72
599616698862533248,-142
599616698870218240,33
599616698877903360,65
599616698885588352,60
599616698893273344,74
599616698900958464,55
599616698908643456,48
599616698916328448,62
599616698924013440,60
599616698931698560,60
599616698939383552,62
599616698947068544,62
599616698954753664,65
599616698962438656,67
599616698970123648,70
599616698977808768,67
599616698985493760,70
599616698993178752,72
599616699000863872,74
599616699008548864,74
599616699016233856,77
599616699023918848,79
599616699031603968,77
599616699039288960,77
599616699046973952,82
599616699054659072,84
599616699062344064,82
599616699070029056,82
599616699077714176,79
599616699085399168,79
599616699093084160,74
599616699100769280,67
599616699108454272,50
599616699116139264,36
599616699123824256,29
599616699131509376,24
599616699139194368,19
599616699146879360,16
599616699154564480,16
599616699162249472,19
599616699169934464,21
599616699177619584,24
599616699185304576,24
599616699192989685,24
599616699200675200,29
599616699208360704,33
599616699216046080,33
599616699223731584,31
599616699231416960,33
599616699239102464,36
599616699246787840,38
599616699254473344,41
599616699262158848,41
599616699269844224,41
599616699277529728,43
599616699285215104,45
599616699292900608,45
599616699300585984,48
599616699308271488,48
599616699315956992,48
599616699323642368,45
599616699331327872,45
599616699339013248,45
599616699346698752,45
599616699354384256,50
599616699362069632,50
599616699369755136,48
599616699377440512,50
599616699385126016,50
599616699392811392,50
599616699400496896,50
599616699408182400,48
599616699415867776,45
599616699423553280,48
599616699431238656,48
599616699438924160,45
599616699446609536,45
599616699454295040,43
599616699461980544,43
599616699469665920,45
599616699477351424,45
599616699485036800,41
599616699492722304,41
599616699500407680,43
599616699508093184,43
599616699515778688,41
599616699523464064,38
599616699531149568,36
599616699538834944,31
599616699546520448,26
599616699554205824,41
599616699561891328,67
599616699569576832,74
599616699577262208,67
599616699584947712,62
599616699592633088,50
599616699600318592,31
599616699608003968,31
599616699615689472,41
599616699623374976,41
599616699631060352,38
599616699638745856,38
599616699646431232,38
599616699654116736,41
599616699661802240,38
599616699669487616,-2
599616699677173120,-111
599616699684858496,-152
599616699692544000,118
599616699700229376,642
599616699707914880,903
599616699715600384,483
599616699723285760,-108
599616699730971264,-164
599616699738656640,16
599616699746342144,21
599616699754027510,-7
599616699761712512,4
599616699769397504,-2
599616699777082624,-4
599616699784767616,2
599616699792452608,4
599616699800137728,4
599616699807822720,9
599616699815507712,12
599616699823192704,12
599616699830877824,14
599616699838562816,16
599616699846247808,19
599616699853932928,21
599616699861617920,24
599616699869302912,21
599616699876988032,24
599616699884673024,24
599616699892358016,26
599616699900043136,24
599616699907728128,24
599616699915413120,24
599616699923098240,21
599616699930783232,21
599616699938468224,21
599616699946153216,19
599616699953838336,24
599616699961523328,26
599616699969208320,24
599616699976893440,16
599616699984578432,9
599616699992263424,2
599616699999948544,-2
599616700007633536,-4
599616700015318528,-7
599616700023003648,-7
599616700030688640,-9
599616700038373632,-7
599616700046058624,-4
599616700053743744,-2
599616700061428736,0
599616700069113728,0
599616700076798848,2
599616700084483840,4
599616700092168832,4
599616700099853952,2
599616700107538944,2
599616700115223936,4
599616700122909056,7
599616700130594048,7
599616700138279040,7
599616700145964032,9
599616700153649152,12
599616700161334144,12
599616700169019136,12
599616700176704256,12
599616700184389248,14
599616700192074240,14
599616700199759360,12
599616700207444352,12
599616700215129344,12
599616700222814464,12
599616700230499456,12
599616700238184448,12
599616700245869568,12
599616700253554560,12
599616700261239552,12
599616700268924544,9
599616700276609664,12
599616700284294656,12
599616700291979648,12
599616700299664768,9
599616700307349760,9
599616700315034821,12
599616700322720384,12
599616700330405888,12
599616700338091264,14
599616700345776768,12
599616700353462144,9
599616700361147648,9
599616700368833024,12
599616700376518528,12
599616700384204032,9
599616700391889408,9
599616700399574912,9
599616700407260288,9
599616700414945792,7
599616700422631168,7
599616700430316672,4
599616700438002176,0
599616700445687552,-4
599616700453373056,-9
599616700461058432,2
599616700468743936,31
599616700476429440,48
599616700484114816,38
599616700491800320,31
599616700499485696,21
599616700507171200,2
599616700514856576,0
599616700522542080,12
599616700530227584,12
599616700537912960,7
599616700545598464,9
599616700553283840,12
599616700560969344,9
599616700568654720,4
599616700576340224,-43
599616700584025728,-164
599616700591711104,-181
599616700599396608,154
599616700607081984,729
599616700614767488,971
599616700622452864,478
599616700630138368,-142
599616700637823872,-183
599616700645509248,4
599616700653194752,2
599616700660880128,-48
599616700668565632,-41
599616700676251008,-36
599616700683936512,-36
599616700691622016,-31
599616700699307392,-26
599616700706992896,-26
599616700714678272,-21
599616700722363776,-16
599616700730049152,-14
599616700737734656,-12
599616700745420160,-9
599616700753105536,-4
599616700760791040,-4
599616700768476416,0
599616700776161920,2
599616700783847424,4
599616700791532800,4
599616700799218304,7
599616700806903680,9
599616700814589184,9
599616700822274560,12
599616700829960064,12
599616700837645568,12
599616700845330944,12
599616700853016448,9
599616700860701824,9
599616700868387328,12
599616700876072646,14
599616700883757696,7
599616700891442688,-2
599616700899127808,-9
599616700906812800,-14
599616700914497792,-16
599616700922182912,-21
599616700929867904,-21
599616700937552896,-21
599616700945237888,-19
599616700952923008,-16
599616700960608000,-14
599616700968292992,-14
599616700975978112,-12
599616700983663104,-12
599616700991348096,-12
599616700999033216,-9
599616701006718208,-9
599616701014403200,-9
599616701022088320,-7
599616701029773312,-4
599616701037458304,-4
599616701045143296,-4
599616701052828416,-2
599616701060513408,-2
599616701068198400,-2
599616701075883520,0
599616701083568512,2
599616701091253504,0
599616701098938624,-2
599616701106623616,-2
599616701114308608,-2
599616701121993728,-2
599616701129678720,-2
599616701137363712,-4
599616701145048832,-4
599616701152733824,-4
599616701160418816,-2
599616701168103808,-4
599616701175788928,-2
599616701183473920,-2
599616701191158912,-2
599616701198844032,-4
599616701206529024,-4
599616701214214016,-2
599616701221899136,-2
599616701229584128,-4
599616701237269120,-9
599616701244954240,-4
599616701252639232,-2
599616701260324224,-4
599616701268009216,-2
599616701275694336,0
599616701283379328,-2
599616701291064320,-2
599616701298749440,0
599616701306434432,-4
599616701314119424,-4
599616701321804544,-2
599616701329489536,-2
599616701337174528,-7
599616701344859648,-9
599616701352544640,-14
599616701360229632,-9
599616701367914624,16
599616701375599744,33
599616701383284736,29
599616701390969728,24
599616701398654848,12
599616701406339840,-9
599616701414024832,-19
599616701421709952,-9
599616701429394944,-7
599616701437079953,-9
599616701444765440,-9
599616701452450944,-7
599616701460136320,-7
599616701467821824,-9
599616701475507200,-50
599616701483192704,-169
599616701490878080,-193
599616701498563584,128
599616701506249088,671
599616701513934464,848
599616701521619968,311
599616701529305344,-280
599616701536990848,-253
599616701544676224,-53
599616701552361728,-45
599616701560047232,-19
599616701567732608,0
599616701575418112,-41
599616701583103488,-33
599616701590788992,-9
599616701598474496,-16
599616701606159872,-16
599616701613845376,-7
599616701621530752,-7
599616701629216256,-4
599616701636901632,-2
599616701644587136,0
599616701652272640,4
599616701659958016,9
599616701667643520,12
599616701675328896,14
599616701683014400,19
599616701690699776,24
599616701698385280,26
599616701706070784,31
599616701713756160,38
599616701721441664,41
599616701729127040,43
599616701736812544,50
599616701744497920,53
599616701752183424,55
599616701759868928,53
599616701767554304,48
599616701775239808,36
599616701782925184,9
599616701790610688,-19
599616701798296064,-33
599616701805981568,-38
599616701813667072,-53
599616701821352448,-58
599616701829037952,-53
599616701836723328,-55
599616701844408832,-55
599616701852094208,-50
599616701859779712,-50
599616701867465216,-48
599616701875150592,-41
599616701882836096,-38
599616701890521472,-38
599616701898206976,-38
599616701905892480,-36
599616701913577856,-36
599616701921263360,-36
599616701928948736,-31
599616701936634240,-31
599616701944319616,-29
599616701952005120,-24
599616701959690624,-24
599616701967376000,-26
599616701975061504,-29
599616701982746880,-26
599616701990432384,-29
599616701998117778,-31
599616702005803264,-26
599616702013488768,-26
599616702021174144,-31
599616702028859648,-33
599616702036545024,-31
599616702044230528,-31
599616702051915904,-31
599616702059601408,-33
599616702067286912,-33
599616702074972288,-31
599616702082657792,-33
599616702090343168,-36
599616702098028672,-33
599616702105714048,-36
599616702113399552,-41
599616702121085056,-38
599616702128770432,-16
599616702136455936,4
599616702144141312,0
599616702151826816,-7
599616702159512320,-19
599616702167197696,-38
599616702174883200,-45
599616702182568576,-36
599616702190254080,-31
599616702197939456,-36
599616702205624960,-36
599616702213310464,-33
599616702220995840,-33
599616702228681344,-31
599616702236366720,-48
599616702244052224,-125
599616702251737600,-212
599616702259423104,-79
599616702267108608,340
599616702274793984,674
599616702282479488,418
599616702290164864,-181
599616702297850368,-340
599616702305535744,-140
599616702313221248,-74
599616702320906752,-53
599616702328592128,-4
599616702336277632,-36
599616702343963008,-58
599616702351648512,-26
599616702359333888,-26
599616702367019392,-48
599616702374704896,-48
599616702382390272,-45
599616702390075776,-45
599616702397761152,-43
599616702405446656,-41
599616702413132032,-38
599616702420817536,-38
599616702428503040,-38
599616702436188416,-36
599616702443873920,-26
599616702451559296,-21
599616702459244800,-21
599616702466930304,-14
599616702474615680,-2
599616702482301184,2
599616702489986560,7
599616702497672064,12
599616702505357440,12
599616702513042944,9
599616702520728448,9
599616702528413824,2
599616702536099328,-19
599616702543784704,-50
599616702551470208,-74
599616702559155603,-89
599616702566840576,-96
599616702574525568,-101
599616702582210688,-103
599616702589895680,-106
599616702597580672,-101
599616702605265792,-101
599616702612950784,-99
599616702620635776,-89
599616702628320768,-87
599616702636005888,-89
599616702643690880,-87
599616702651375872,-82
599616702659060992,-77
599616702666745984,-77
599616702674430976,-74
599616702682116096,-67
599616702689801088,-65
599616702697486080,-67
599616702705171200,-67
599616702712856192,-70
599616702720541184,-77
599616702728226176,-74
599616702735911296,-72
599616702743596288,-74
599616702751281280,-74
599616702758966400,-72
599616702766651392,-74
599616702774336384,-74
599616702782021504,-74
599616702789706496,-77
599616702797391488,-77
599616702805076608,-77
599616702812761600,-74
599616702820446592,-77
599616702828131712,-87
599616702835816704,-84
599616702843501696,-79
599616702851186688,-74
599616702858871808,-55
599616702866556800,-45
599616702874241792,-60
599616702881926912,-65
599616702889611904,-72
599616702897296896,-91
599616702904982016,-94
599616702912667008,-87
599616702920352000,-89
599616702928037120,-94
599616702935722112,-94
599616702943407104,-89
599616702951092096,-87
599616702958777216,-87
599616702966462208,-113
599616702974147200,-193
599616702981832320,-236
599616702989517312,-41
599616702997202304,350
599616703004887424,495
599616703012572416,116
599616703020257408,-309
599616703027942528,-280
599616703035627520,-123
599616703043312512,-103
599616703050997504,-72
599616703058682624,-58
599616703066367616,-91
599616703074052608,-89
599616703081737728,-72
599616703089422720,-77
599616703097107712,-74
599616703104792832,-70
599616703112477824,-70
599616703120162910,-65
599616703127847936,-62
599616703135532928,-62
599616703143218048,-62
599616703150903040,-62
599616703158588032,-55
599616703166273152,-48
599616703173958144,-53
599616703181643136,-53
599616703189328128,-45
599616703197013248,-48
599616703204698240,-41
599616703212383232,-29
599616703220068352,-29
599616703227753344,-31
599616703235438336,-31
599616703243123456,-29
599616703250808448,-31
599616703258493440,-43
599616703266178560,-65
599616703273863552,-87
599616703281548544,-99
599616703289233664,-103
599616703296918656,-108
599616703304603648,-111
599616703312288640,-116
599616703319973760,-118
599616703327658752,-113
599616703335343744,-106
599616703343028864,-101
599616703350713856,-106
599616703358398848,-103
599616703366083968,-94
599616703373768960,-96
599616703381453952,-99
599616703389139072,-89
599616703396824064,-84
599616703404509056,-91
599616703412194048,-89
599616703419879168,-82
599616703427564160,-82
599616703435249152,-87
599616703442934272,-84
599616703450619264,-77
599616703458304256,-74
599616703465989376,-77
599616703473674368,-77
599616703481359360,-74
599616703489044480,-72
599616703496729472,-70
599616703504414464,-70
599616703512099456,-65
599616703519784576,-62
599616703527469568,-62
599616703535154560,-62
599616703542839680,-62
599616703550524672,-65
599616703558209664,-67
599616703565894784,-55
599616703573579776,-31
599616703581264768,-21
599616703588949888,-26
599616703596634880,-31
599616703604319872,-43
599616703612004992,-58
599616703619689984,-53
599616703627374976,-48
599616703635059968,-45
599616703642745088,-43
599616703650430080,-43
599616703658115072,-45
599616703665800192,-43
599616703673485184,-43
599616703681170221,-62
599616703688855680,-128
599616703696541184,-171
599616703704226560,-12
599616703711912064,335
599616703719597440,505
599616703727282944,195
599616703734968320,-198
599616703742653824,-205
599616703750339328,-74
599616703758024704,-55
599616703765710208,-26
599616703773395584,-9
599616703781081088,-43
599616703788766464,-41
599616703796451968,-19
599616703804137472,-26
599616703811822848,-29
599616703819508352,-21
599616703827193728,-21
599616703834879232,-19
599616703842564736,-14
599616703850250112,-9
599616703857935616,-9
599616703865620992,-7
599616703873306496,0
599616703880991872,2
599616703888677376,4
599616703896362880,9
599616703904048256,9
599616703911733760,12
599616703919419136,21
599616703927104640,26
599616703934790016,24
599616703942475520,26
599616703950161024,26
599616703957846400,21
599616703965531904,19
599616703973217280,14
599616703980902784,-2
599616703988588160,-19
599616703996273664,-31
599616704003959168,-41
599616704011644544,-45
599616704019330048,-48
599616704027015424,-48
599616704034700928,-48
599616704042386304,-43
599616704050071808,-41
599616704057757312,-41
599616704065442688,-36
599616704073128192,-36
599616704080813568,-38
599616704088499072,-31
599616704096184448,-26
599616704103869952,-26
599616704111555456,-24
599616704119240832,-21
599616704126926336,-19
599616704134611712,-19
599616704142297216,-21
599616704149982720,-19
599616704157668096,-16
599616704165353600,-12
599616704173038976,-9
599616704180724480,-12
599616704188409856,-12
599616704196095360,-12
599616704203780864,-9
599616704211466240,-12
599616704219151744,-12
599616704226837120,-7
599616704234522624,-4
599616704242208046,-4
599616704249892992,-4
599616704257577984,-4
599616704265263104,-7
599616704272948096,-2
599616704280633088,-4
599616704288318208,-7
599616704296003200,-2
599616704303688192,-4
599616704311373184,-9
599616704319058304,-9
599616704326743296,-9
599616704334428288,-2
599616704342113408,16
599616704349798400,26
599616704357483392,24
599616704365168512,26
599616704372853504,16
599616704380538496,-2
599616704388223616,-2
599616704395908608,7
599616704403593600,7
599616704411278592,7
599616704418963712,14
599616704426648704,19
599616704434333696,21
599616704442018816,26
599616704449703808,9
599616704457388800,-60
599616704465073920,-130
599616704472758912,2
599616704480443904,379
599616704488129024,657
599616704495814016,420
599616704503499008,-70
599616704511184128,-178
599616704518869120,-14
599616704526554112,26
599616704534239104,26
599616704541924224,45
599616704549609216,26
599616704557294208,24
599616704564979328,41
599616704572664320,36
599616704580349312,31
599616704588034432,41
599616704595719424,48
599616704603404416,45
599616704611089536,45
599616704618774528,50
599616704626459520,53
599616704634144512,55
599616704641829632,58
599616704649514624,60
599616704657199616,60
599616704664884736,60
599616704672569728,62
599616704680254720,67
599616704687939840,72
599616704695624832,72
599616704703309824,74
599616704710994944,79
599616704718679936,77
599616704726364928,70
599616704734049920,67
599616704741735040,67
599616704749420032,58
599616704757105024,43
599616704764790144,33
599616704772475136,24
599616704780160128,19
599616704787845248,16
599616704795530240,14
599616704803215353,14
599616704810900864,16
599616704818586368,16
599616704826271744,19
599616704833957248,21
599616704841642624,24
599616704849328128,26
599616704857013504,31
599616704864699008,36
599616704872384512,38
599616704880069888,38
599616704887755392,43
599616704895440768,50
599616704903126272,53
599616704910811648,53
599616704918497152,50
599616704926182656,53
599616704933868032,62
599616704941553536,67
599616704949238912,67
599616704956924416,65
599616704964609920,62
599616704972295296,65
599616704979980800,65
599616704987666176,62
599616704995351680,62
599616705003037056,65
599616705010722560,60
599616705018408064,60
599616705026093440,60
599616705033778944,58
599616705041464320,58
599616705049149824,58
599616705056835200,55
599616705064520704,55
599616705072206208,55
599616705079891584,53
599616705087577088,53
599616705095262464,53
599616705102947968,53
599616705110633344,53
599616705118318848,53
599616705126004352,50
599616705133689728,50
599616705141375232,50
599616705149060608,53
599616705156746112,53
599616705164431488,53
599616705172116992,58
599616705179802496,62
599616705187487872,62
599616705195173376,62
599616705202858752,65
599616705210544256,65
599616705218229632,62
599616705225915136,55
599616705233600640,53
599616705241286016,67
599616705248971520,89
599616705256656896,94
599616705264342400,89
599616705272027904,87
599616705279713280,70
599616705287398784,53
599616705295084160,58
599616705302769664,65
599616705310455040,62
599616705318140544,60
599616705325826048,60
599616705333511424,60
599616705341196928,60
599616705348882304,55
599616705356567808,2
599616705364253178,-103
599616705371938176,-89
599616705379623168,248
599616705387308288,734
599616705394993280,816
599616705402678272,299
599616705410363392,-145
599616705418048384,-72
599616705425733376,62
599616705433418368,38
599616705441103488,41
599616705448788480,53
599616705456473472,36
599616705464158592,38
599616705471843584,48
599616705479528576,45
599616705487213696,45
599616705494898688,55
599616705502583680,58
599616705510268800,53
599616705517953792,55
599616705525638784,60
599616705533323776,60
599616705541008896,65
599616705548693888,70
599616705556378880,70
599616705564064000,70
599616705571748992,72
599616705579433984,72
599616705587119104,72
599616705594804096,72
599616705602489088,74
599616705610174208,74
599616705617859200,72
599616705625544192,70
599616705633229312,70
599616705640914304,70
599616705648599296,72
599616705656284288,72
599616705663969408,65
599616705671654400,53
599616705679339392,48
599616705687024512,45
599616705694709504,41
599616705702394496,36
599616705710079616,33
599616705717764608,33
599616705725449600,33
599616705733134720,33
599616705740819712,33
599616705748504704,36
599616705756189696,38
599616705763874816,38
599616705771559808,38
599616705779244800,38
599616705786929920,43
599616705794614912,43
599616705802299904,41
599616705809985024,45
599616705817670016,45
599616705825355008,43
599616705833040128,41
599616705840725120,43
599616705848410112,43
599616705856095104,41
599616705863780224,41
599616705871465216,41
599616705879150208,36
599616705886835328,33
599616705894520320,36
599616705902205312,36
599616705909890432,33
599616705917575424,31
599616705925260485,31
599616705932946048,31
599616705940631552,31
599616705948316928,29
599616705956002432,29
599616705963687808,29
599616705971373312,29
599616705979058688,26
599616705986744192,24
599616705994429696,24
599616706002115072,24
599616706009800576,21
599616706017485952,24
599616706025171456,21
599616706032856832,21
599616706040542336,24
599616706048227840,24
599616706055913216,21
599616706063598720,21
599616706071284096,21
599616706078969600,21
599616706086655104,21
599616706094340480,21
599616706102025984,19
599616706109711360,19
599616706117396864,21
599616706125082240,19
599616706132767744,16
599616706140453248,12
599616706148138624,7
599616706155824128,2
599616706163509504,21
599616706171195008,48
599616706178880384,53
599616706186565888,43
599616706194251392,38
599616706201936768,24
599616706209622272,9
599616706217307648,12
599616706224993152,21
599616706232678528,16
599616706240364032,12
599616706248049536,14
599616706255734912,14
599616706263420416,12
599616706271105792,2
599616706278791296,-65
599616706286476672,-181
599616706294162176,-130
599616706301847680,275
599616706309533056,802
599616706317218560,845
599616706324903936,251
599616706332589440,-215
599616706340274816,-123
599616706347960320,21
599616706355645824,-14
599616706363331200,-36
599616706371016704,-26
599616706378702080,-31
599616706386387584,-29
599616706394073088,-21
599616706401758464,-19
599616706409443968,-19
599616706417129344,-14
599616706424814848,-9
599616706432500224,-7
599616706440185728,-2
599616706447871232,0
599616706455556608,2
599616706463242112,7
599616706470927488,7
599616706478612992,7
599616706486298310,9
599616706493983360,14
599616706501668352,12
599616706509353472,12
599616706517038464,14
599616706524723456,19
599616706532408576,19
599616706540093568,14
599616706547778560,14
599616706555463552,16
599616706563148672,16
599616706570833664,16
599616706578518656,16
599616706586203776,7
599616706593888768,-4
599616706601573760,-12
599616706609258880,-16
599616706616943872,-19
599616706624628864,-21
599616706632313984,-21
599616706639998976,-19
599616706647683968,-19
599616706655369088,-16
599616706663054080,-12
599616706670739072,-12
599616706678424064,-9
599616706686109184,-9
599616706693794176,-7
599616706701479168,-9
599616706709164288,-7
599616706716849280,-4
599616706724534272,-2
599616706732219392,-2
599616706739904384,0
599616706747589376,0
599616706755274496,0
599616706762959488,2
599616706770644480,2
599616706778329472,2
599616706786014592,2
599616706793699584,2
599616706801384576,0
599616706809069696,0
599616706816754688,0
599616706824439680,0
599616706832124800,0
599616706839809792,-2
599616706847494784,0
599616706855179904,0
599616706862864896,2
599616706870549888,0
599616706878234880,0
599616706885920000,0
599616706893604992,0
599616706901289984,-2
599616706908975104,-2
599616706916660096,0
599616706924345088,0
599616706932030208,0
599616706939715200,0
599616706947400192,0
599616706955085312,0
599616706962770304,0
599616706970455296,-2
599616706978140416,-4
599616706985825408,-2
599616706993510400,-2
599616707001195392,-2
599616707008880512,-2
599616707016565504,-2
599616707024250496,-2
599616707031935616,0
599616707039620608,0
599616707047305621,-2
599616707054991104,-4
599616707062676608,-4
599616707070361984,-7
599616707078047488,-7
599616707085732864,-14
599616707093418368,-16
599616707101103744,-2
599616707108789248,21
599616707116474752,31
599616707124160128,26
599616707131845632,14
599616707139531008,-2
599616707147216512,-14
599616707154901888,-9
599616707162587392,-2
599616707170272896,-2
599616707177958272,-7
599616707185643776,-4
599616707193329152,-4
599616707201014656,-4
599616707208700160,-16
599616707216385536,-96
599616707224071040,-210
599616707231756416,-106
599616707239441920,357
599616707247127296,850
599616707254812800,766
599616707262498304,91
599616707270183680,-306
599616707277869184,-147
599616707285554560,-16
599616707293240064,-33
599616707300925440,-24
599616707308610944,-31
599616707316296448,-48
599616707323981824,-33
599616707331667328,-24
599616707339352704,-29
599616707347038208,-24
599616707354723584,-16
599616707362409088,-14
599616707370094592,-16
599616707377779968,-9
599616707385465472,-7
599616707393150848,-7
599616707400836352,-2
599616707408521728,4
599616707416207232,9
599616707423892736,9
599616707431578112,12
599616707439263616,16
599616707446948992,16
599616707454634496,21
599616707462319872,26
599616707470005376,31
599616707477690880,33
599616707485376256,33
599616707493061760,31
599616707500747136,31
599616707508432640,29
599616707516118144,14
599616707523803520,-2
599616707531489024,-21
599616707539174400,-38
599616707546859904,-45
599616707554545280,-53
599616707562230784,-58
599616707569916288,-58
599616707577601664,-58
599616707585287168,-58
599616707592972544,-50
599616707600658048,-48
599616707608343446,-48
599616707616028928,-48
599616707623714432,-43
599616707631399808,-41
599616707639085312,-36
599616707646770688,-33
599616707654456192,-33
599616707662141568,-33
599616707669827072,-31
599616707677512576,-31
599616707685197952,-29
599616707692883456,-29
599616707700568832,-29
599616707708254336,-29
599616707715939712,-29
599616707723625216,-31
599616707731310720,-31
599616707738996096,-31
599616707746681600,-29
599616707754366976,-26
599616707762052480,-29
599616707769737984,-31
599616707777423360,-31
599616707785108864,-29
599616707792794240,-29
599616707800479744,-29
599616707808165120,-29
599616707815850624,-26
599616707823536128,-24
599616707831221504,-21
599616707838907008,-21
599616707846592384,-24
599616707854277888,-24
599616707861963264,-24
599616707869648768,-24
599616707877334272,-29
599616707885019648,-31
599616707892705152,-31
599616707900390528,-38
599616707908076032,-29
599616707915761408,-2
599616707923446912,9
599616707931132416,2
599616707938817792,-2
599616707946503296,-16
599616707954188672,-36
599616707961874176,-33
599616707969559552,-26
599616707977245056,-29
599616707984930560,-31
599616707992615936,-31
599616708000301440,-33
599616708007986816,-36
599616708015672320,-38
599616708023357696,-70
599616708031043200,-171
599616708038728704,-212
599616708046414080,53
599616708054099584,526
599616708061784960,688
599616708069470464,215
599616708077155968,-314
599616708084841344,-285
599616708092526848,-91
599616708100212224,-74
599616708107897728,-33
599616708115583104,-9
599616708123268608,-53
599616708130954112,-53
599616708138639488,-29
599616708146324992,-36
599616708154010368,-41
599616708161695872,-29
599616708169381271,-24
599616708177066752,-24
599616708184752256,-24
599616708192437632,-16
599616708200123136,-14
599616708207808512,-12
599616708215494016,-9
599616708223179392,-7
599616708230864896,-4
599616708238550400,-4
599616708246235776,-12
599616708253921280,-19
599616708261606656,-14
599616708269292160,-7
599616708276977536,-4
599616708284663040,-2
599616708292348544,4
599616708300033920,4
599616708307719424,-2
599616708315404800,-16
599616708323090304,-36
599616708330775808,-62
599616708338461184,-91
599616708346146688,-108
599616708353832064,-116
599616708361517568,-123
599616708369202944,-125
599616708376888448,-120
599616708384573952,-120
599616708392259328,-120
599616708399944832,-118
599616708407630208,-116
599616708415315712,-108
599616708423001088,-101
599616708430686592,-96
599616708438372096,-91
599616708446057472,-91
599616708453742976,-89
599616708461428352,-84
599616708469113856,-82
599616708476799232,-77
599616708484484736,-74
599616708492170240,-77
599616708499855616,-79
599616708507541120,-74
599616708515226496,-72
599616708522912000,-74
599616708530597376,-77
599616708538282880,-79
599616708545968384,-74
599616708553653760,-72
599616708561339264,-79
599616708569024640,-82
599616708576710144,-77
599616708584395520,-79
599616708592081024,-79
599616708599766528,-74
599616708607451904,-74
599616708615137408,-74
599616708622822784,-72
599616708630508288,-72
599616708638193792,-74
599616708645879168,-77
599616708653564672,-79
599616708661250048,-74
599616708668935552,-50
599616708676620928,-29
599616708684306432,-36
599616708691991936,-43
599616708699677312,-53
599616708707362816,-70
599616708715048192,-72
599616708722733696,-62
599616708730419096,-65
599616708738104064,-70
599616708745789056,-65
599616708753474176,-60
599616708761159168,-62
599616708768844160,-62
599616708776529280,-72
599616708784214272,-135
599616708791899264,-217
599616708799584256,-128
599616708807269376,232
599616708814954368,555
599616708822639360,372
599616708830324480,-159
599616708838009472,-333
599616708845694464,-157
599616708853379584,-89
599616708861064576,-79
599616708868749568,-41
599616708876434688,-62
599616708884119680,-82
599616708891804672,-58
599616708899489664,-53
599616708907174784,-62
599616708914859776,-58
599616708922544768,-55
599616708930229888,-58
599616708937914880,-55
599616708945599872,-48
599616708953284992,-45
599616708960969984,-48
599616708968654976,-50
599616708976340096,-45
599616708984025088,-38
599616708991710080,-36
599616708999395200,-38
599616709007080192,-31
599616709014765184,-21
599616709022450176,-21
599616709030135296,-19
599616709037820288,-12
599616709045505280,-16
599616709053190400,-24
599616709060875392,-21
599616709068560384,-29
599616709076245504,-53
599616709083930496,-79
599616709091615488,-99
599616709099300608,-113
599616709106985600,-123
599616709114670592,-130
599616709122355584,-132
599616709130040704,-128
599616709137725696,-123
599616709145410688,-125
599616709153095808,-123
599616709160780800,-113
599616709168465792,-111
599616709176150912,-116
599616709183835904,-113
599616709191520896,-103
599616709199206016,-99
599616709206891008,-103
599616709214576000,-106
599616709222260992,-94
599616709229946112,-87
599616709237631104,-94
599616709245316096,-91
599616709253001216,-79
599616709260686208,-82
599616709268371200,-87
599616709276056320,-82
599616709283741312,-77
599616709291426403,-79
599616709299111936,-77
599616709306797440,-72
599616709314482816,-77
599616709322168320,-77
599616709329853696,-72
599616709337539200,-72
599616709345224576,-72
599616709352910080,-72
599616709360595584,-74
599616709368280960,-72
599616709375966464,-70
599616709383651840,-70
599616709391337344,-67
599616709399022720,-58
599616709406708224,-38
599616709414393728,-31
599616709422079104,-33
599616709429764608,-36
599616709437449984,-48
599616709445135488,-60
599616709452820992,-60
599616709460506368,-53
599616709468191872,-48
599616709475877248,-50
599616709483562752,-50
599616709491248128,-53
599616709498933632,-55
599616709506619136,-48
599616709514304512,-65
599616709521990016,-147
599616709529675392,-190
599616709537360896,7
599616709545046272,374
599616709552731776,505
599616709560417280,157
599616709568102656,-229
599616709575788160,-210
599616709583473536,-72
599616709591159040,-58
599616709598844416,-33
599616709606529920,-19
599616709614215424,-43
599616709621900800,-45
599616709629586304,-31
599616709637271680,-31
599616709644957184,-31
599616709652642560,-26
599616709660328064,-29
599616709668013568,-24
599616709675698944,-16
599616709683384448,-14
599616709691069824,-14
599616709698755328,-9
599616709706440704,-4
599616709714126208,-4
599616709721811712,0
599616709729497088,7
599616709737182592,9
599616709744867968,12
599616709752553472,19
599616709760238976,21
599616709767924352,29
599616709775609856,31
599616709783295232,29
599616709790980736,29
599616709798666112,24
599616709806351616,14
599616709814037120,2
599616709821722496,-16
599616709829408000,-33
599616709837093376,-41
599616709844778880,-43
599616709852464228,-45
599616709860149760,-45
599616709867835264,-43
599616709875520640,-43
599616709883206144,-41
599616709890891520,-38
599616709898577024,-38
599616709906262400,-33
599616709913947904,-31
599616709921633408,-31
599616709929318784,-29
599616709937004288,-21
599616709944689664,-19
599616709952375168,-19
599616709960060544,-14
599616709967746048,-12
599616709975431552,-9
599616709983116928,-9
599616709990802432,-9
599616709998487808,-7
599616710006173312,-4
599616710013858816,-4
599616710021544192,-9
599616710029229696,-4
599616710036915072,-4
599616710044600576,-7
599616710052285952,-4
599616710059971456,-4
599616710067656960,-4
599616710075342336,-4
599616710083027840,-2
599616710090713216,0
599616710098398720,4
599616710106084096,4
599616710113769600,0
599616710121455104,4
599616710129140480,12
599616710136825984,16
599616710144511360,14
599616710152196864,12
599616710159882240,14
599616710167567744,26
599616710175253248,48
599616710182938624,50
599616710190624128,48
599616710198309504,43
599616710205995008,26
599616710213680384,12
599616710221365888,16
599616710229051392,21
599616710236736768,21
599616710244422272,24
599616710252107648,24
599616710259793152,24
599616710267478656,29
599616710275164032,24
599616710282849536,-14
599616710290534912,-101
599616710298220416,-101
599616710305905792,164
599616710313591296,565
599616710321276800,626
599616710328962176,176
599616710336647680,-190
599616710344333056,-113
599616710352018560,12
599616710359703936,14
599616710367389440,33
599616710375074944,33
599616710382760320,12
599616710390445824,21
599616710398131200,31
599616710405816704,24
599616710413502057,31
599616710421187072,38
599616710428872064,38
599616710436557184,45
599616710444242176,53
599616710451927168,53
599616710459612288,58
599616710467297280,62
599616710474982272,65
599616710482667264,65
599616710490352384,67
599616710498037376,72
599616710505722368,74
599616710513407488,77
599616710521092480,84
599616710528777472,87
599616710536462592,89
599616710544147584,91
599616710551832576,91
599616710559517696,94
599616710567202688,94
599616710574887680,89
599616710582572672,77
599616710590257792,65
599616710597942784,53
599616710605627776,43
599616710613312896,38
599616710620997888,33
599616710628682880,31
599616710636368000,31
599616710644052992,33
599616710651737984,33
599616710659423104,31
599616710667108096,31
599616710674793088,33
599616710682478208,36
599616710690163200,38
599616710697848192,38
599616710705533184,41
599616710713218304,43
599616710720903296,45
599616710728588288,45
599616710736273408,50
599616710743958400,58
599616710751643392,60
599616710759328512,58
599616710767013504,58
599616710774698496,60
599616710782383616,62
599616710790068608,62
599616710797753600,62
599616710805438592,60
599616710813123712,62
599616710820808704,65
599616710828493696,62
599616710836178816,60
599616710843863808,65
599616710851548800,65
599616710859233920,60
599616710866918912,60
599616710874603904,58
599616710882289024,55
599616710889974016,55
599616710897659008,55
599616710905344000,50
599616710913029120,48
599616710920714112,50
599616710928399104,48
599616710936084224,50
599616710943769216,53
599616710951454208,50
599616710959139328,50
599616710966824320,55
599616710974509364,53
599616710982194816,53
599616710989880320,53
599616710997565696,53
599616711005251200,50
599616711012936576,45
599616711020622080,45
599616711028307456,45
599616711035992960,38
599616711043678464,33
599616711051363840,43
599616711059049344,67
599616711066734720,79
599616711074420224,74
599616711082105600,72
599616711089791104,60
599616711097476608,41
599616711105161984,38
599616711112847488,45
599616711120532864,45
599616711128218368,43
599616711135903872,48
599616711143589248,50
599616711151274752,45
599616711158960128,45
599616711166645632,21
599616711174331008,-77
599616711182016512,-145
599616711189702016,65
599616711197387392,563
599616711205072896,896
599616711212758272,580
599616711220443776,-21
599616711228129152,-154
599616711235814656,21
599616711243500160,43
599616711251185536,16
599616711258871040,33
599616711266556416,24
599616711274241920,14
599616711281927296,29
599616711289612800,31
599616711297298304,29
599616711304983680,31
599616711312669184,33
599616711320354560,33
599616711328040064,33
599616711335725440,38
599616711343410944,38
599616711351096448,38
599616711358781824,41
599616711366467328,43
599616711374152704,41
599616711381838208,43
599616711389523584,43
599616711397209088,43
599616711404894592,43
599616711412579968,43
599616711420265472,43
599616711427950848,41
599616711435636352,41
599616711443321856,38
599616711451007232,38
599616711458692736,41
599616711466378112,43
599616711474063616,41
599616711481748992,31
599616711489434496,21
599616711497120000,16
599616711504805376,12
599616711512490880,7
599616711520176256,4
599616711527861760,4
599616711535547189,4
599616711543232128,4
599616711550917120,7
599616711558602240,7
599616711566287232,7
599616711573972224,9
599616711581657344,14
599616711589342336,16
599616711597027328,14
599616711604712320,12
599616711612397440,14
599616711620082432,16
599616711627767424,16
599616711635452544,14
599616711643137536,16
599616711650822528,16
599616711658507648,16
599616711666192640,16
599616711673877632,16
599616711681562752,14
599616711689247744,12
599616711696932736,12
599616711704617728,12
599616711712302848,12
599616711719987840,9
599616711727672832,9
599616711735357952,9
599616711743042944,7
599616711750727936,7
599616711758413056,9
599616711766098048,9
599616711773783040,7
599616711781468160,7
599616711789153152,7
599616711796838144,7
599616711804523264,9
599616711812208256,9
599616711819893248,9
599616711827578240,9
599616711835263360,9
599616711842948352,9
599616711850633344,9
599616711858318464,9
599616711866003456,9
599616711873688448,9
599616711881373568,9
599616711889058560,12
599616711896743552,12
599616711904428672,9
599616711912113664,9
599616711919798656,12
599616711927483648,12
599616711935168768,12
599616711942853760,12
599616711950538752,9
599616711958223872,7
599616711965908864,2
599616711973593856,-4
599616711981278976,2
599616711988963968,26
599616711996648960,45
599616712004334080,43
599616712012019072,38
599616712019704064,26
599616712027389056,2
599616712035074176,-4
599616712042759168,7
599616712050444160,7
599616712058129280,2
599616712065814272,4
599616712073499264,7
599616712081184384,4
599616712088869376,4
599616712096554496,-26
599616712104240000,-135
599616712111925504,-210
599616712119610880,16
599616712127296384,563
599616712134981760,954
599616712142667264,645
599616712150352640,-21
599616712158038144,-215
599616712165723648,-31
599616712173409024,7
599616712181094528,-53
599616712188779904,-53
599616712196465408,-41
599616712204150784,-45
599616712211836288,-41
599616712219521792,-33
599616712227207168,-31
599616712234892672,-29
599616712242578048,-24
599616712250263552,-21
599616712257949056,-21
599616712265634432,-19
599616712273319936,-14
599616712281005312,-12
599616712288690816,-9
599616712296376192,-7
599616712304061696,-7
599616712311747200,-4
599616712319432576,-4
599616712327118080,-4
599616712334803456,-4
599616712342488960,-2
599616712350174336,-2
599616712357859840,-2
599616712365545344,-2
599616712373230720,-2
599616712380916224,0
599616712388601600,4
599616712396287104,4
599616712403972480,4
599616712411657984,0
599616712419343488,-9
599616712427028864,-14
599616712434714368,-16
599616712442399744,-21
599616712450085248,-24
599616712457770624,-21
599616712465456128,-21
599616712473141632,-21
599616712480827008,-16
599616712488512512,-14
599616712496197888,-14
599616712503883392,-14
599616712511568768,-12
599616712519254272,-12
599616712526939776,-12
599616712534625152,-12
599616712542310656,-9
599616712549996032,-9
599616712557681536,-9
599616712565367040,-7
599616712573052416,-7
599616712580737920,-7
599616712588423296,-9
599616712596108800,-9
599616712603794176,-9
599616712611479680,-7
599616712619165184,-9
599616712626850560,-9
599616712634536064,-7
599616712642221440,-7
599616712649906944,-7
599616712657592321,-9
599616712665277312,-9
599616712672962304,-12
599616712680647424,-12
599616712688332416,-12
599616712696017408,-12
599616712703702528,-12
599616712711387520,-12
599616712719072512,-12
599616712726757504,-12
599616712734442624,-9
599616712742127616,-9
599616712749812608,-9
599616712757497728,-9
599616712765182720,-9
599616712772867712,-7
599616712780552832,-7
599616712788237824,-7
599616712795922816,-7
599616712803607936,-7
599616712811292928,-7
599616712818977920,-7
599616712826663040,-4
599616712834348032,-7
599616712842033024,-7
599616712849718016,-4
599616712857403136,-7
599616712865088128,-9
599616712872773120,-7
599616712880458240,-9
599616712888143232,-19
599616712895828224,-21
599616712903513344,-2
599616712911198336,26
599616712918883328,31
599616712926568448,24
599616712934253440,19
599616712941938432,2
599616712949623424,-14
599616712957308544,-12
599616712964993536,-2
599616712972678528,-9
599616712980363648,-12
599616712988048640,-7
599616712995733632,-7
599616713003418752,-9
599616713011103744,-24
599616713018788736,-106
599616713026473856,-222
599616713034158848,-118
599616713041843840,350
599616713049528832,867
599616713057213952,804
599616713064898944,120
599616713072583936,-304
599616713080269056,-159
599616713087954048,-21
599616713095639040,-38
599616713103324160,-38
599616713111009152,-48
599616713118694144,-55
599616713126379264,-38
599616713134064256,-33
599616713141749248,-38
599616713149434368,-31
599616713157119360,-26
599616713164804352,-24
599616713172489344,-21
599616713180174464,-16
599616713187859456,-12
599616713195544448,-9
599616713203229568,-7
599616713210914560,-2
599616713218599630,0
599616713226285184,2
599616713233970688,4
599616713241656064,9
599616713249341568,14
599616713257026944,14
599616713264712448,16
599616713272397824,19
599616713280083328,24
599616713287768832,26
599616713295454208,24
599616713303139712,26
599616713310825088,26
599616713318510592,14
599616713326195968,-2
599616713333881472,-21
599616713341566976,-36
599616713349252352,-43
599616713356937856,-53
599616713364623232,-55
599616713372308736,-55
599616713379994240,-53
599616713387679616,-53
599616713395365120,-50
599616713403050496,-45
599616713410736000,-43
599616713418421376,-41
599616713426106880,-36
599616713433792384,-33
599616713441477760,-33
599616713449163264,-31
599616713456848640,-31
599616713464534144,-29
599616713472219520,-26
599616713479905024,-26
599616713487590528,-26
599616713495275904,-26
599616713502961408,-26
599616713510646784,-24
599616713518332288,-24
599616713526017664,-26
599616713533703168,-29
599616713541388672,-31
599616713549074048,-29
599616713556759552,-29
599616713564444928,-29
599616713572130432,-26
599616713579815808,-26
599616713587501312,-29
599616713595186816,-29
599616713602872192,-26
599616713610557696,-29
599616713618243072,-29
599616713625928576,-26
599616713633614080,-26
599616713641299456,-29
599616713648984960,-29
599616713656670336,-26
599616713664355840,-29
599616713672041216,-36
599616713679726720,-38
599616713687412224,-16
599616713695097600,9
599616713702783104,9
599616713710468480,2
599616713718153984,-2
599616713725839360,-19
599616713733524864,-31
599616713741210368,-26
599616713748895744,-21
599616713756581248,-24
599616713764266624,-24
599616713771952128,-24
599616713779637457,-24
599616713787323008,-24
599616713795008512,-26
599616713802693888,-79
599616713810379392,-190
599616713818064768,-176
599616713825750272,169
599616713833435648,647
599616713841121152,669
599616713848806656,79
599616713856492032,-357
599616713864177536,-227
599616713871862912,-67
599616713879548416,-62
599616713887233792,-2
599616713894919296,4
599616713902604800,-41
599616713910290176,-29
599616713917975680,-7
599616713925661056,-16
599616713933346560,-16
599616713941032064,-9
599616713948717440,-9
599616713956402944,-9
599616713964088320,-2
599616713971773824,2
599616713979459200,4
599616713987144704,9
599616713994830208,14
599616714002515584,12
599616714010201088,16
599616714017886464,26
599616714025571968,33
599616714033257344,33
599616714040942848,38
599616714048628352,43
599616714056313728,48
599616714063999232,53
599616714071684608,55
599616714079370112,53
599616714087055488,45
599616714094740992,31
599616714102426496,4
599616714110111872,-26
599616714117797376,-55
599616714125482752,-74
599616714133168256,-84
599616714140853632,-94
599616714148539136,-96
599616714156224640,-96
599616714163910016,-99
599616714171595520,-94
599616714179280896,-84
599616714186966400,-82
599616714194651776,-84
599616714202337280,-82
599616714210022784,-77
599616714217708160,-72
599616714225393664,-67
599616714233079040,-65
599616714240764544,-65
599616714248450048,-62
599616714256135424,-58
599616714263820928,-55
599616714271506304,-50
599616714279191808,-50
599616714286877184,-55
599616714294562688,-53
599616714302248192,-45
599616714309933568,-48
599616714317619072,-53
599616714325304448,-48
599616714332989952,-48
599616714340675282,-50
599616714348360320,-48
599616714356045312,-45
599616714363730432,-48
599616714371415424,-43
599616714379100416,-43
599616714386785536,-48
599616714394470528,-53
599616714402155520,-55
599616714409840512,-62
599616714417525632,-55
599616714425210624,-41
599616714432895616,-41
599616714440580736,-43
599616714448265728,-55
599616714455950720,-77
599616714463635840,-82
599616714471320832,-74
599616714479005824,-74
599616714486690944,-79
599616714494375936,-74
599616714502060928,-70
599616714509745920,-72
599616714517431040,-72
599616714525116032,-74
599616714532801024,-120
599616714540486144,-219
599616714548171136,-198
599616714555856128,123
599616714563541248,534
599616714571226240,500
599616714578911232,-36
599616714586596352,-364
599616714594281344,-227
599616714601966336,-106
599616714609651456,-91
599616714617336448,-38
599616714625021440,-43
599616714632706432,-84
599616714640391552,-60
599616714648076544,-38
599616714655761536,-53
599616714663446656,-53
599616714671131648,-43
599616714678816640,-45
599616714686501760,-48
599616714694186752,-38
599616714701871744,-31
599616714709556864,-31
599616714717241856,-26
599616714724926848,-21
599616714732611840,-19
599616714740296960,-12
599616714747981952,-7
599616714755666944,-2
599616714763352064,0
599616714771037056,7
599616714778722048,14
599616714786407168,19
599616714794092160,21
599616714801777152,19
599616714809462272,16
599616714817147264,14
599616714824832256,4
599616714832517248,-21
599616714840202368,-50
599616714847887360,-70
599616714855572352,-82
599616714863257472,-89
599616714870942464,-91
599616714878627456,-91
599616714886312576,-91
599616714893997568,-89
599616714901682589,-84
599616714909368064,-82
599616714917053568,-84
599616714924738944,-82
599616714932424448,-77
599616714940109824,-74
599616714947795328,-74
599616714955480704,-72
599616714963166208,-67
599616714970851712,-67
599616714978537088,-65
599616714986222592,-62
599616714993907968,-60
599616715001593472,-62
599616715009278848,-60
599616715016964352,-58
599616715024649856,-60
599616715032335232,-58
599616715040020736,-55
599616715047706112,-55
599616715055391616,-53
599616715063077120,-58
599616715070762496,-58
599616715078448000,-55
599616715086133376,-58
599616715093818880,-58
599616715101504256,-55
599616715109189760,-60
599616715116875264,-60
599616715124560640,-41
599616715132246144,-24
599616715139931520,-19
599616715147617024,-21
599616715155302400,-31
599616715162987904,-48
599616715170673408,-58
599616715178358784,-48
599616715186044288,-43
599616715193729664,-48
599616715201415168,-50
599616715209100544,-43
599616715216786048,-41
599616715224471552,-41
599616715232156928,-48
599616715239842432,-82
599616715247527808,-164
599616715255213312,-166
599616715262898688,87
599616715270584192,483
599616715278269696,541
599616715285955072,89
599616715293640576,-273
599616715301325952,-190
599616715309011456,-62
599616715316696832,-53
599616715324382336,-19
599616715332067840,-19
599616715339753216,-48
599616715347438720,-36
599616715355124096,-21
599616715362809600,-29
599616715370495104,-26
599616715378180480,-19
599616715385865984,-14
599616715393551360,-16
599616715401236864,-12
599616715408922240,-9
599616715416607744,-9
599616715424293248,-4
599616715431978624,0
599616715439664128,4
599616715447349504,9
599616715455035008,12
599616715462720414,16
599616715470405376,24
599616715478090368,24
599616715485775488,26
599616715493460480,31
599616715501145472,31
599616715508830592,31
599616715516515584,31
599616715524200576,26
599616715531885568,14
599616715539570688,-7
599616715547255680,-26
599616715554940672,-38
599616715562625792,-45
599616715570310784,-53
599616715577995776,-55
599616715585680896,-53
599616715593365888,-53
599616715601050880,-55
599616715608736000,-50
599616715616420992,-45
599616715624105984,-45
599616715631790976,-43
599616715639476096,-36
599616715647161088,-36
599616715654846080,-36
599616715662531200,-31
599616715670216192,-29
599616715677901184,-26
599616715685586304,-26
599616715693271296,-26
599616715700956288,-24
599616715708641408,-21
599616715716326400,-21
599616715724011392,-21
599616715731696512,-16
599616715739381504,-16
599616715747066496,-21
599616715754751488,-19
599616715762436608,-14
599616715770121600,-19
599616715777806592,-21
599616715785491712,-16
599616715793176704,-16
599616715800861696,-21
599616715808546816,-21
599616715816231808,-21
599616715823916800,-24
599616715831601920,-24
599616715839286912,-4
599616715846971904,16
599616715854656896,16
599616715862342016,12
599616715870027008,9
599616715877712000,-7
599616715885397120,-16
599616715893082112,-9
599616715900767104,-4
599616715908452224,-12
599616715916137216,-12
599616715923822208,-4
599616715931507328,-2
599616715939192320,-4
599616715946877312,-7
599616715954562304,-45
599616715962247424,-135
599616715969932416,-140
599616715977617408,132
599616715985302528,555
599616715992987520,628
599616716000672512,161
599616716008357632,-229
599616716016042624,-152
599616716023727721,-21
599616716031413248,-14
599616716039098752,4
599616716046784128,2
599616716054469632,-16
599616716062155008,-4
599616716069840512,4
599616716077525888,-2
599616716085211392,2
599616716092896896,9
599616716100582272,9
599616716108267776,9
599616716115953152,16
599616716123638656,24
599616716131324032,26
599616716139009536,31
599616716146695040,36
599616716154380416,38
599616716162065920,41
599616716169751296,43
599616716177436800,48
599616716185122304,53
599616716192807680,55
599616716200493184,60
599616716208178560,62
599616716215864064,62
599616716223549440,60
599616716231234944,60
599616716238920448,58
599616716246605824,50
599616716254291328,36
599616716261976704,24
599616716269662208,12
599616716277347584,4
599616716285033088,0
599616716292718592,-2
599616716300403968,-2
599616716308089472,0
599616716315774848,0
599616716323460352,0
599616716331145728,2
599616716338831232,7
599616716346516736,7
599616716354202112,9
599616716361887616,14
599616716369572992,16
599616716377258496,16
599616716384943872,16
599616716392629376,21
599616716400314880,24
599616716408000256,24
599616716415685760,24
599616716423371136,29
599616716431056640,31
599616716438742016,33
599616716446427520,33
599616716454113024,31
599616716461798400,31
599616716469483904,31
599616716477169280,29
599616716484854784,31
599616716492540288,29
599616716500225664,31
599616716507911168,31
599616716515596544,31
599616716523282048,33
599616716530967424,38
599616716538652928,38
599616716546338432,36
599616716554023808,33
599616716561709312,33
599616716569394688,29
599616716577080192,24
599616716584765546,19
599616716592450560,16
599616716600135552,29
599616716607820672,48
599616716615505664,53
599616716623190656,50
599616716630875776,50
599616716638560768,33
599616716646245760,9
599616716653930752,12
599616716661615872,24
599616716669300864,24
599616716676985856,19
599616716684670976,21
599616716692355968,24
599616716700040960,24
599616716707726080,21
599616716715411072,-2
599616716723096064,-94
599616716730781184,-166
599616716738466176,26
599616716746151168,505
599616716753836288,836
599616716761521280,534
599616716769206272,-58
599616716776891264,-193
599616716784576384,-19
599616716792261376,12
599616716799946368,-14
599616716807631488,-7
599616716815316480,-14
599616716823001472,-16
599616716830686592,-7
599616716838371584,-4
599616716846056576,-4
599616716853741696,-2
599616716861426688,0
599616716869111680,2
599616716876796672,4
599616716884481792,7
599616716892166784,9
599616716899851776,14
599616716907536896,16
599616716915221888,19
599616716922906880,19
599616716930592000,19
599616716938276992,21
599616716945961984,24
599616716953647104,26
599616716961332096,24
599616716969017088,24
599616716976702080,26
599616716984387200,26
599616716992072192,24
599616716999757184,26
599616717007442304,26
599616717015127296,21
599616717022812288,12
599616717030497408,0
599616717038182400,-7
599616717045867392,-9
599616717053552512,-12
599616717061237504,-14
599616717068922496,-14
599616717076607616,-14
599616717084292608,-12
599616717091977600,-12
599616717099662592,-9
599616717107347712,-7
599616717115032704,-4
599616717122717696,-4
599616717130402816,-4
599616717138087808,-2
599616717145772857,-2
599616717153458304,-2
599616717161143808,0
599616717168829184,0
599616717176514688,0
