599617915455423360,5919
599617915463115648,5919
599617915470807936,5820
599617915478500224,6296
599617915486192640,6284
599617915493884928,6114
599617915501577216,6211
599617915509269504,6206
599617915516961792,6085
599617915524654080,6059
599617915532346496,6030
599617915540038784,5940
599617915547731072,5873
599617915555423360,5832
599617915563115648,5776
599617915570807936,5701
599617915578500224,5631
599617915586192640,5578
599617915593884928,5525
599617915601577216,5457
599617915609269504,5392
599617915616961792,5341
599617915624654080,5281
599617915632346496,5213
599617915640038784,5155
599617915647731072,5107
599617915655423360,5070
599617915663115648,5017
599617915670807936,4930
599617915678500224,4872
599617915686192640,4836
599617915693884928,4773
599617915701577216,4717
599617915709269504,4679
599617915716961792,4623
599617915724654080,4563
599617915732346496,4514
599617915740038784,4471
599617915747731072,4415
599617915755423360,4355
599617915763115648,4338
599617915770807936,4353
599617915778500224,4321
599617915786192640,4249
599617915793884928,4195
599617915801577216,4133
599617915809269504,4050
599617915816961792,4000
599617915824654080,3973
599617915832346496,3930
599617915840038784,3884
599617915847731072,3845
599617915855423360,3801
599617915863115648,3763
599617915870807936,3719
599617915878500224,3620
599617915886192640,3434
599617915893884928,3340
599617915901577216,3664
599617915909269504,4343
599617915916961792,4701
599617915924654080,4164
599617915932346496,3277
599617915940038784,2977
599617915947731072,3098
599617915955423360,3146
599617915963115648,3207
599617915970807936,3243
599617915978500224,3168
599617915986192640,3122
599617915993884928,3120
599617916001577216,3093
599617916009269545,3062
599617916016955008,3042
599617916024640512,3013
599617916032325888,2984
599617916040011392,2965
599617916047696768,2939
599617916055382272,2912
599617916063067648,2893
599617916070753152,2878
599617916078438656,2856
599617916086124032,2825
599617916093809536,2810
599617916101494912,2803
599617916109180416,2779
599617916116865792,2748
599617916124551296,2731
599617916132236800,2714
599617916139922176,2685
599617916147607680,2656
599617916155293056,2636
599617916162978560,2620
599617916170664064,2586
599617916178349440,2523
599617916186034944,2462
599617916193720320,2412
599617916201405824,2356
599617916209091200,2308
599617916216776704,2274
599617916224462208,2240
599617916232147584,2211
599617916239833088,2189
599617916247518464,2168
599617916255203968,2146
599617916262889344,2124
599617916270574848,2100
599617916278260352,2085
599617916285945728,2066
599617916293631232,2044
599617916301316608,2030
599617916309002112,2015
599617916316687488,1994
599617916324372992,1972
599617916332058496,1957
599617916339743872,1940
599617916347429376,1921
599617916355114752,1897
599617916362800256,1875
599617916370485632,1856
599617916378171136,1836
599617916385856640,1817
599617916393542016,1800
599617916401227520,1778
599617916408912896,1757
599617916416598400,1737
599617916424283776,1723
599617916431969280,1703
599617916439654784,1684
599617916447340160,1665
599617916455025664,1645
599617916462711040,1631
599617916470396544,1614
599617916478082048,1597
599617916485767424,1580
599617916493452928,1566
599617916501138304,1546
599617916508823808,1532
599617916516509184,1520
599617916524194688,1505
599617916531880192,1488
599617916539565568,1471
599617916547251072,1457
599617916554936448,1445
599617916562621952,1428
599617916570307370,1409
599617916577992832,1399
599617916585678336,1387
599617916593363712,1370
599617916601049216,1355
599617916608734592,1346
599617916616420096,1334
599617916624105472,1317
599617916631790976,1305
599617916639476480,1295
599617916647161856,1281
599617916654847360,1259
599617916662532736,1244
599617916670218240,1235
599617916677903616,1208
599617916685589120,1184
599617916693274624,1213
599617916700960000,1261
599617916708645504,1249
599617916716330880,1215
599617916724016384,1196
599617916731701888,1157
599617916739387264,1116
599617916747072768,1106
599617916754758144,1106
599617916762443648,1094
599617916770129024,1080
599617916777814528,1070
599617916785500032,1063
599617916793185408,1053
599617916800870912,1032
599617916808556288,942
599617916816241792,771
599617916823927168,773
599617916831612672,1237
599617916839298176,1957
599617916846983552,2213
599617916854669056,1597
599617916862354432,800
599617916870039936,609
599617916877725312,763
599617916885410816,845
599617916893096320,894
599617916900781696,891
599617916908467200,855
599617916916152576,862
599617916923838080,877
599617916931523456,862
599617916939208960,862
599617916946894464,867
599617916954579840,858
599617916962265344,855
599617916969950720,855
599617916977636224,850
599617916985321600,850
599617916993007104,853
599617917000692608,853
599617917008377984,848
599617917016063488,848
599617917023748864,850
599617917031434368,848
599617917039119872,848
599617917046805248,845
599617917054490752,843
599617917062176128,841
599617917069861632,838
599617917077547008,831
599617917085232512,821
599617917092918016,814
599617917100603392,797
599617917108288896,771
599617917115974272,739
599617917123659776,713
599617917131345195,684
599617917139031040,659
599617917146716928,645
599617917154402816,635
599617917162088704,626
599617917169774464,621
599617917177460352,618
599617917185146240,613
599617917192832128,606
599617917200518016,604
599617917208203904,604
599617917215889664,599
599617917223575552,592
599617917231261440,587
599617917238947328,587
599617917246633216,582
599617917254319104,577
599617917262004864,577
599617917269690752,575
599617917277376640,567
599617917285062528,565
599617917292748416,563
599617917300434304,558
599617917308120192,553
599617917315805952,551
599617917323491840,546
599617917331177728,536
599617917338863616,534
599617917346549504,531
599617917354235392,526
599617917361921152,524
599617917369607040,519
599617917377292928,514
599617917384978816,512
599617917392664704,509
599617917400350592,502
599617917408036352,497
599617917415722240,497
599617917423408128,495
599617917431094016,490
599617917438779904,485
599617917446465792,483
599617917454151680,480
599617917461837440,478
599617917469523328,476
599617917477209216,471
599617917484895104,464
599617917492580992,461
599617917500266880,459
599617917507952640,456
599617917515638528,451
599617917523324416,449
599617917531010304,447
599617917538696192,444
599617917546382080,444
599617917554067840,442
599617917561753728,437
599617917569439616,432
599617917577125504,430
599617917584811392,427
599617917592497280,425
599617917600183040,422
599617917607868928,420
599617917615554816,418
599617917623240704,415
599617917630926592,413
599617917638612480,410
599617917646298368,408
599617917653984128,406
599617917661670016,403
599617917669355904,401
599617917677041792,393
599617917684727680,391
599617917692413538,381
599617917700099072,364
599617917707784576,350
599617917715469952,374
599617917723155456,425
599617917730840832,449
599617917738526336,430
599617917746211712,410
599617917753897216,389
599617917761582720,355
599617917769268096,343
599617917776953600,355
599617917784638976,352
599617917792324480,345
599617917800009856,348
599617917807695360,348
599617917815380864,343
599617917823066240,331
599617917830751744,251
599617917838437120,87
599617917846122624,89
599617917853808128,553
599617917861493504,1290
599617917869179008,1600
599617917876864384,1044
599617917884549888,248
599617917892235264,19
599617917899920768,159
599617917907606272,248
599617917915291648,273
599617917922977152,256
599617917930662528,244
599617917938348032,263
599617917946033408,275
599617917953718912,273
599617917961404416,280
599617917969089792,285
599617917976775296,287
599617917984460672,294
599617917992146176,299
599617917999831552,304
599617918007517056,309
599617918015202560,314
599617918022887936,319
599617918030573440,321
599617918038258816,326
599617918045944320,333
599617918053629696,338
599617918061315200,340
599617918069000704,345
599617918076686080,352
599617918084371584,355
599617918092056960,355
599617918099742464,357
599617918107427840,355
599617918115113344,350
599617918122798848,343
599617918130484224,328
599617918138169728,306
599617918145855104,280
599617918153540608,256
599617918161226112,239
599617918168911488,227
599617918176596992,217
599617918184282368,212
599617918191967872,207
599617918199653248,207
599617918207338752,207
599617918215024256,207
599617918222709632,210
599617918230395136,210
599617918238080512,210
599617918245766016,212
599617918253451363,215
599617918261136896,217
599617918268822400,219
599617918276507776,219
599617918284193280,219
599617918291878656,219
599617918299564160,219
599617918307249536,219
599617918314935040,219
599617918322620544,217
599617918330305920,212
599617918337991424,212
599617918345676800,212
599617918353362304,210
599617918361047680,210
599617918368733184,205
599617918376418688,203
599617918384104064,205
599617918391789568,203
599617918399474944,203
599617918407160448,200
599617918414845952,198
599617918422531328,195
599617918430216832,195
599617918437902208,195
599617918445587712,195
599617918453273088,193
599617918460958592,195
599617918468644096,195
599617918476329472,193
599617918484014976,190
599617918491700352,193
599617918499385856,195
599617918507071232,190
599617918514756736,188
599617918522442240,193
599617918530127616,193
599617918537813120,188
599617918545498496,188
599617918553184000,188
599617918560869376,188
599617918568554880,190
599617918576240384,188
599617918583925760,188
599617918591611264,190
599617918599296640,190
599617918606982144,188
599617918614667520,188
599617918622353024,190
599617918630038528,186
599617918637723904,183
599617918645409408,186
599617918653094784,186
599617918660780288,183
599617918668465664,181
599617918676151168,171
599617918683836672,164
599617918691522048,186
599617918699207552,232
599617918706892928,251
599617918714578432,236
599617918722263936,215
599617918729949312,190
599617918737634816,171
599617918745320192,169
599617918753005696,176
599617918760691072,174
599617918768376576,171
599617918776062080,174
599617918783747456,176
599617918791432960,176
599617918799118336,169
599617918806803840,96
599617918814489188,-58
599617918822174720,-50
599617918829860224,408
599617918837545728,1104
599617918845231232,1307
599617918852916736,655
599617918860602368,-101
599617918868287872,-205
599617918875973376,-48
599617918883658880,7
599617918891344384,125
599617918899029888,190
599617918906715392,130
599617918914400896,132
599617918922086528,174
599617918929772032,164
599617918937457536,157
599617918945143040,176
599617918952828544,178
599617918960514048,178
599617918968199552,188
599617918975885056,195
599617918983570688,198
599617918991256192,203
599617918998941696,210
599617919006627200,215
599617919014312704,224
599617919021998208,232
599617919029683712,239
599617919037369216,246
599617919045054720,258
599617919052740352,268
599617919060425856,275
599617919068111360,277
599617919075796864,277
599617919083482368,277
599617919091167872,275
599617919098853376,263
599617919106538880,236
599617919114224512,198
599617919121910016,157
599617919129595520,130
599617919137281024,108
599617919144966528,87
599617919152652032,74
599617919160337536,70
599617919168023040,67
599617919175708672,67
599617919183394176,74
599617919191079680,77
599617919198765184,79
599617919206450688,82
599617919214136192,84
599617919221821696,84
599617919229507200,84
599617919237192704,87
599617919244878336,91
599617919252563840,94
599617919260249344,96
599617919267934848,99
599617919275620352,101
599617919283305856,103
599617919290991360,106
599617919298676864,106
599617919306362496,103
599617919314048000,103
599617919321733504,103
599617919329419008,103
599617919337104512,103
599617919344790016,106
599617919352475520,103
599617919360161024,101
599617919367846656,101
599617919375532104,96
599617919383217920,96
599617919390903680,99
599617919398589568,99
599617919406275328,99
599617919413961088,99
599617919421646848,101
599617919429332736,101
599617919437018496,101
599617919444704256,99
599617919452390144,101
599617919460075904,103
599617919467761664,101
599617919475447552,101
599617919483133312,106
599617919490819072,106
599617919498504832,103
599617919506190720,101
599617919513876480,106
599617919521562240,111
599617919529248128,111
599617919536933888,111
599617919544619648,111
599617919552305536,108
599617919559991296,108
599617919567677056,103
599617919575362816,101
599617919583048704,101
599617919590734464,91
599617919598420224,101
599617919606106112,149
599617919613791872,178
599617919621477632,166
599617919629163520,147
599617919636849280,135
599617919644535040,113
599617919652220800,96
599617919659906688,103
599617919667592448,106
599617919675278208,101
599617919682964096,101
599617919690649856,106
599617919698335616,106
599617919706021376,103
599617919713707264,94
599617919721393024,7
599617919729078784,-135
599617919736764672,-43
599617919744450432,480
599617919752136192,1068
599617919759822080,1015
599617919767507840,265
599617919775193600,-265
599617919782879360,-186
599617919790565248,-67
599617919798251008,-26
599617919805936768,108
599617919813622656,140
599617919821308416,72
599617919828994176,96
599617919836680064,137
599617919844365824,118
599617919852051584,116
599617919859737344,140
599617919867423232,145
599617919875108992,140
599617919882794752,145
599617919890480640,149
599617919898166400,157
599617919905852160,161
599617919913537920,169
599617919921223808,178
599617919928909568,188
599617919936595360,190
599617919944280832,195
599617919951966336,205
599617919959651712,217
599617919967337216,227
599617919975022592,236
599617919982708096,236
599617919990393472,239
599617919998078976,246
599617920005764480,246
599617920013449856,232
599617920021135360,198
599617920028820736,154
599617920036506240,116
599617920044191616,87
599617920051877120,65
599617920059562624,53
599617920067248000,43
599617920074933504,36
599617920082618880,33
599617920090304384,33
599617920097989888,33
599617920105675264,36
599617920113360768,31
599617920121046144,29
599617920128731648,26
599617920136417024,29
599617920144102528,38
599617920151788032,50
599617920159473408,60
599617920167158912,62
599617920174844288,62
599617920182529792,62
599617920190215168,67
599617920197900672,70
599617920205586176,70
599617920213271552,72
599617920220957056,77
599617920228642432,77
599617920236327936,82
599617920244013312,84
599617920251698816,77
599617920259384320,70
599617920267069696,72
599617920274755200,77
599617920282440576,72
599617920290126080,65
599617920297811456,62
599617920305496960,65
599617920313182464,67
599617920320867840,74
599617920328553344,84
599617920336238720,84
599617920343924224,89
599617920351609600,94
599617920359295104,89
599617920366980608,84
599617920374665984,89
599617920382351488,94
599617920390036864,87
599617920397722368,84
599617920405407872,89
599617920413093248,82
599617920420778752,77
599617920428464128,101
599617920436149632,137
599617920443835008,145
599617920451520512,135
599617920459206016,118
599617920466891392,96
599617920474576896,84
599617920482262272,82
599617920489947776,82
599617920497633185,79
599617920505318656,84
599617920513004160,87
599617920520689536,84
599617920528375040,89
599617920536060416,91
599617920543745920,60
599617920551431296,-53
599617920559116800,-135
599617920566802304,103
599617920574487680,667
599617920582173184,1027
599617920589858560,664
599617920597544064,-33
599617920605229440,-246
599617920612914944,-94
599617920620600448,-38
599617920628285824,36
599617920635971328,132
599617920643656704,99
599617920651342208,65
599617920659027712,103
599617920666713088,118
599617920674398592,106
599617920682083968,118
599617920689769472,130
599617920697454848,130
599617920705140352,135
599617920712825856,142
599617920720511232,147
599617920728196736,154
599617920735882112,157
599617920743567616,161
599617920751252992,174
599617920758938496,188
599617920766624000,195
599617920774309376,203
599617920781994880,217
599617920789680256,224
599617920797365760,229
599617920805051136,239
599617920812736640,246
599617920820422144,248
599617920828107520,246
599617920835793024,229
599617920843478400,205
599617920851163904,169
599617920858849280,130
599617920866534784,96
599617920874220288,74
599617920881905664,60
599617920889591168,50
599617920897276544,48
599617920904962048,45
599617920912647424,48
599617920920332928,55
599617920928018432,62
599617920935703808,62
599617920943389312,65
599617920951074688,72
599617920958760192,72
599617920966445696,72
599617920974131072,82
599617920981816576,91
599617920989501952,89
599617920997187456,87
599617921004872832,91
599617921012558336,91
599617921020243840,89
599617921027929216,89
599617921035614720,96
599617921043300096,99
599617921050985600,99
599617921058671010,101
599617921066356480,111
599617921074041984,116
599617921081727360,111
599617921089412864,106
599617921097098240,106
599617921104783744,106
599617921112469120,103
599617921120154624,106
599617921127840128,111
599617921135525504,108
599617921143211008,103
599617921150896384,103
599617921158581888,108
599617921166267264,108
599617921173952768,108
599617921181638272,111
599617921189323648,111
599617921197009152,111
599617921204694528,111
599617921212380032,103
599617921220065536,103
599617921227750912,132
599617921235436416,166
599617921243121792,166
599617921250807296,152
599617921258492672,152
599617921266178176,132
599617921273863680,106
599617921281549056,108
599617921289234560,116
599617921296919936,111
599617921304605440,106
599617921312290816,111
599617921319976320,113
599617921327661824,113
599617921335347200,106
599617921343032704,84
599617921350718080,-2
599617921358403584,-91
599617921366088960,74
599617921373774464,570
599617921381459968,949
599617921389145344,698
599617921396830848,70
599617921404516224,-188
599617921412201728,-74
599617921419887104,0
599617921427572608,58
599617921435258112,120
599617921442943488,99
599617921450628992,82
599617921458314368,111
599617921465999872,116
599617921473685248,106
599617921481370752,113
599617921489056256,120
599617921496741632,125
599617921504427136,125
599617921512112512,120
599617921519798016,123
599617921527483520,125
599617921535168896,128
599617921542854400,137
599617921550539776,152
599617921558225280,159
599617921565910656,152
599617921573596160,142
599617921581281664,157
599617921588967040,181
599617921596652544,195
599617921604337920,198
599617921612023424,200
599617921619708835,205
599617921627394688,203
599617921635080576,188
599617921642766464,161
599617921650452352,120
599617921658138112,84
599617921665824000,65
599617921673509888,60
599617921681195776,50
599617921688881664,36
599617921696567552,31
599617921704253312,41
599617921711939200,41
599617921719625088,43
599617921727310976,53
599617921734996864,55
599617921742682752,50
599617921750368512,53
599617921758054400,60
599617921765740288,62
599617921773426176,70
599617921781112064,70
599617921788797952,70
599617921796483840,79
599617921804169600,91
599617921811855488,94
599617921819541376,96
599617921827227264,99
599617921834913152,96
599617921842599040,91
599617921850284800,89
599617921857970688,96
599617921865656576,99
599617921873342464,91
599617921881028352,89
599617921888714240,94
599617921896400000,101
599617921904085888,106
599617921911771776,103
599617921919457664,96
599617921927143552,101
599617921934829440,111
599617921942515328,108
599617921950201088,111
599617921957886976,111
599617921965572864,103
599617921973258752,101
599617921980944640,108
599617921988630528,113
599617921996316288,118
599617922004002176,118
599617922011688064,118
599617922019373952,116
599617922027059840,113
599617922034745728,113
599617922042431488,113
599617922050117376,111
599617922057803264,111
599617922065489152,111
599617922073175040,108
599617922080860928,113
599617922088546688,118
599617922096232576,128
599617922103918464,157
599617922111604352,174
599617922119290240,164
599617922126976128,157
599617922134662016,147
599617922142347776,123
599617922150033664,111
599617922157719552,113
599617922165405440,113
599617922173091328,113
599617922180777178,113
599617922188462720,118
599617922196148224,125
599617922203833600,130
599617922211519104,130
599617922219204480,94
599617922226889984,-9
599617922234575360,-36
599617922242260864,234
599617922249946368,686
599617922257631744,831
599617922265317248,422
599617922273002624,-55
599617922280688128,-111
599617922288373504,9
599617922296059008,50
599617922303744512,96
599617922311429888,123
599617922319115392,103
599617922326800768,103
599617922334486272,120
599617922342171776,130
599617922349857152,132
599617922357542656,140
599617922365228032,145
599617922372913536,147
599617922380598912,145
599617922388284416,140
599617922395969920,145
599617922403655296,157
599617922411340800,166
599617922419026176,183
599617922426711680,195
599617922434397056,193
599617922442082560,193
599617922449768064,203
599617922457453440,207
599617922465138944,205
599617922472824320,207
599617922480509824,217
599617922488195200,219
599617922495880704,217
599617922503566208,212
599617922511251584,200
599617922518937088,176
599617922526622464,145
599617922534307968,118
599617922541993344,103
599617922549678848,94
599617922557364352,87
599617922565049728,87
599617922572735232,82
599617922580420608,77
599617922588106112,77
599617922595791616,82
599617922603476992,82
599617922611162496,79
599617922618847872,82
599617922626533376,84
599617922634218752,87
599617922641904256,91
599617922649589760,91
599617922657275136,96
599617922664960640,99
599617922672646016,101
599617922680331520,103
599617922688016896,101
599617922695702400,101
599617922703387904,108
599617922711073280,116
599617922718758784,123
599617922726444160,120
599617922734129664,123
599617922741815007,130
599617922749500928,118
599617922757186816,103
599617922764872704,116
599617922772558592,130
599617922780244352,128
599617922787930240,123
599617922795616128,120
599617922803302016,128
599617922810987904,132
599617922818673792,128
599617922826359552,120
599617922834045440,123
599617922841731328,128
599617922849417216,120
599617922857103104,116
599617922864788992,123
599617922872474752,128
599617922880160640,125
599617922887846528,118
599617922895532416,118
599617922903218304,118
599617922910904192,120
599617922918590080,123
599617922926275840,116
599617922933961728,108
599617922941647616,116
599617922949333504,125
599617922957019392,123
599617922964705280,120
599617922972391040,125
599617922980076928,128
599617922987762816,120
599617922995448704,130
599617923003134592,135
599617923010820480,128
599617923018506240,132
599617923026192128,140
599617923033878016,130
599617923041563904,128
599617923049249792,130
599617923056935680,125
599617923064621568,130
599617923072307328,130
599617923079993216,125
599617923087679104,128
599617923095364992,130
599617923103050880,132
599617923110736768,132
599617923118422528,130
599617923126108416,132
599617923133794304,135
599617923141480192,132
599617923149166080,135
599617923156851968,145
599617923164537728,142
599617923172223616,132
599617923179909504,135
599617923187595392,140
599617923195281280,140
599617923202967168,145
599617923210652928,137
599617923218338816,128
599617923226024704,132
599617923233710592,154
599617923241396480,176
599617923249082368,171
599617923256768256,157
599617923264454016,154
599617923272139904,137
599617923279825792,111
599617923287511680,118
599617923295197568,125
599617923302883350,113
599617923310568832,113
599617923318254336,116
599617923325939712,116
599617923333625216,118
599617923341310592,101
599617923348996096,43
599617923356681472,-45
599617923364366976,12
599617923372052480,360
599617923379737856,717
599617923387423360,652
599617923395108736,217
599617923402794240,-67
599617923410479616,-26
599617923418165120,36
599617923425850624,50
599617923433536000,103
599617923441221504,116
599617923448906880,89
599617923456592384,103
599617923464277888,123
599617923471963264,113
599617923479648768,108
599617923487334144,116
599617923495019648,125
599617923502705024,130
599617923510390528,128
599617923518076032,128
599617923525761408,140
599617923533446912,147
599617923541132288,149
599617923548817792,149
599617923556503168,149
599617923564188672,157
599617923571874176,166
599617923579559552,169
599617923587245056,174
599617923594930432,176
599617923602615936,174
599617923610301312,181
599617923617986816,186
599617923625672320,178
599617923633357696,174
599617923641043200,166
599617923648728576,152
599617923656414080,135
599617923664099456,111
599617923671784960,94
599617923679470464,84
599617923687155840,82
599617923694841344,79
599617923702526720,77
599617923710212224,72
599617923717897600,67
599617923725583104,72
599617923733268608,91
599617923740953984,91
599617923748639488,79
599617923756324864,91
599617923764010368,108
599617923771695872,99
599617923779381248,96
599617923787066752,103
599617923794752128,111
599617923802437632,108
599617923810123008,106
599617923817808512,108
599617923825494016,120
599617923833179392,120
599617923840864896,106
599617923848550272,108
599617923856235776,120
599617923863921175,113
599617923871606656,103
599617923879292160,116
599617923886977536,113
599617923894663040,99
599617923902348416,106
599617923910033920,113
599617923917719296,108
599617923925404800,101
599617923933090304,99
599617923940775680,101
599617923948461184,87
599617923956146560,87
599617923963832064,108
599617923971517440,101
599617923979202944,87
599617923986888448,99
599617923994573824,108
599617924002259328,106
599617924009944704,99
599617924017630208,99
599617924025315712,103
599617924033001088,103
599617924040686592,96
599617924048371968,89
599617924056057472,91
599617924063742848,94
599617924071428352,89
599617924079113856,84
599617924086799232,91
599617924094484736,87
599617924102170112,72
599617924109855616,79
599617924117540992,91
599617924125226496,82
599617924132912000,72
599617924140597376,77
599617924148282880,74
599617924155968256,67
599617924163653760,67
599617924171339136,43
599617924179024640,12
599617924186710144,12
599617924194395520,29
599617924202081024,43
599617924209766400,58
599617924217451904,60
599617924225137280,60
599617924232822784,70
599617924240508288,77
599617924248193664,72
599617924255879168,74
599617924263564544,82
599617924271250048,77
599617924278935424,82
599617924286620928,108
599617924294306432,125
599617924301991808,120
599617924309677312,116
599617924317362688,113
599617924325048192,96
599617924332733696,84
599617924340419072,87
599617924348104576,82
599617924355789952,79
599617924363475456,84
599617924371160832,82
599617924378846336,74
599617924386531840,77
599617924394217216,77
599617924401902720,45
599617924409588096,-29
599617924417273600,-65
599617924424959000,111
599617924432644480,444
599617924440329984,599
599617924448015360,360
599617924455700864,0
599617924463386240,-91
599617924471071744,-26
599617924478757120,-14
599617924486442624,29
599617924494128128,79
599617924501813504,60
599617924509499008,50
599617924517184384,72
599617924524869888,70
599617924532555264,70
599617924540240768,77
599617924547926272,77
599617924555611648,79
599617924563297152,82
599617924570982528,84
599617924578668032,94
599617924586353536,96
599617924594038912,101
599617924601724416,108
599617924609409792,111
599617924617095296,118
599617924624780672,120
599617924632466176,125
599617924640151680,135
599617924647837056,132
599617924655522560,128
599617924663207936,140
599617924670893440,149
599617924678578816,140
599617924686264320,132
599617924693949824,135
599617924701635200,118
599617924709320704,82
599617924717006080,65
599617924724691584,62
599617924732376960,48
599617924740062464,36
599617924747747968,36
599617924755433344,29
599617924763118848,21
599617924770804224,33
599617924778489728,36
599617924786175104,24
599617924793860608,31
599617924801546112,43
599617924809231488,45
599617924816916992,43
599617924824602368,43
599617924832287872,45
599617924839973248,50
599617924847658752,50
599617924855344256,53
599617924863029632,55
599617924870715136,53
599617924878400512,62
599617924886086016,70
599617924893771520,67
599617924901456896,70
599617924909142400,72
599617924916827776,72
599617924924513280,74
599617924932198656,74
599617924939884160,74
599617924947569664,77
599617924955255040,72
599617924962940544,70
599617924970625920,74
599617924978311424,74
599617924985996825,72
599617924993682688,72
599617925001368576,72
599617925009054464,77
599617925016740352,74
599617925024426112,72
599617925032112000,77
599617925039797888,79
599617925047483776,72
599617925055169664,70
599617925062855552,70
599617925070541312,72
599617925078227200,74
599617925085913088,72
599617925093598976,72
599617925101284864,74
599617925108970752,72
599617925116656512,70
599617925124342400,70
599617925132028288,72
599617925139714176,77
599617925147400064,79
599617925155085952,79
599617925162771840,79
599617925170457600,84
599617925178143488,89
599617925185829376,87
599617925193515264,87
599617925201201152,91
599617925208887040,94
599617925216572800,91
599617925224258688,89
599617925231944576,91
599617925239630464,91
599617925247316352,87
599617925255002240,91
599617925262688000,96
599617925270373888,89
599617925278059776,91
599617925285745664,99
599617925293431552,96
599617925301117440,94
599617925308803328,96
599617925316489088,96
599617925324174976,89
599617925331860864,91
599617925339546752,99
599617925347232640,101
599617925354918528,91
599617925362604288,91
599617925370290176,96
599617925377976064,94
599617925385661952,87
599617925393347840,91
599617925401033728,101
599617925408719488,91
599617925416405376,87
599617925424091264,91
599617925431777152,94
599617925439463040,108
599617925447148928,130
599617925454834688,135
599617925462520576,120
599617925470206464,108
599617925477892352,96
599617925485578240,84
599617925493264128,84
599617925500950016,94
599617925508635776,89
599617925516321664,84
599617925524007552,87
599617925531693440,91
599617925539379328,91
599617925547065168,89
599617925554750720,65
599617925562436224,-16
599617925570121600,-67
599617925577807104,116
599617925585492480,502
599617925593177984,715
599617925600863360,466
599617925608548864,53
599617925616234368,-67
599617925623919744,-7
599617925631605248,7
599617925639290624,55
599617925646976128,111
599617925654661504,89
599617925662347008,74
599617925670032512,96
599617925677717888,101
599617925685403392,94
599617925693088768,99
599617925700774272,106
599617925708459776,106
599617925716145152,106
599617925723830656,108
599617925731516032,106
599617925739201536,113
599617925746886912,113
599617925754572416,103
599617925762257920,108
599617925769943296,118
599617925777628800,118
599617925785314176,118
599617925792999680,118
599617925800685056,120
599617925808370560,123
599617925816056064,120
599617925823741440,120
599617925831426944,120
599617925839112320,111
599617925846797824,96
599617925854483200,84
599617925862168704,67
599617925869854208,43
599617925877539584,24
599617925885225088,9
599617925892910464,2
599617925900595968,-2
599617925908281344,-4
599617925915966848,-7
599617925923652352,-4
599617925931337728,-4
599617925939023232,-2
599617925946708608,-2
599617925954394112,2
599617925962079616,4
599617925969764992,9
599617925977450496,19
599617925985135872,24
599617925992821376,16
599617926000506752,9
599617926008192256,4
599617926015877760,-4
599617926023563136,-9
599617926031248640,-14
599617926038934016,-14
599617926046619520,-9
599617926054304896,-4
599617926061990400,-4
599617926069675904,-7
599617926077361280,-9
599617926085046784,-4
599617926092732160,0
599617926100417664,-2
599617926108102997,0
599617926115788928,4
599617926123474816,7
599617926131160704,12
599617926138846592,14
599617926146532352,14
599617926154218240,14
599617926161904128,12
599617926169590016,12
599617926177275904,16
599617926184961792,21
599617926192647552,21
599617926200333440,19
599617926208019328,19
599617926215705216,21
599617926223391104,29
599617926231076992,33
599617926238762752,33
599617926246448640,33
599617926254134528,33
599617926261820416,31
599617926269506304,33
599617926277192192,43
599617926284878080,41
599617926292563840,38
599617926300249728,41
599617926307935616,38
599617926315621504,38
599617926323307392,43
599617926330993280,45
599617926338679040,48
599617926346364928,48
599617926354050816,50
599617926361736704,50
599617926369422592,50
599617926377108480,48
599617926384794240,45
599617926392480128,45
599617926400166016,48
599617926407851904,45
599617926415537792,48
599617926423223680,48
599617926430909568,50
599617926438595328,50
599617926446281216,45
599617926453967104,43
599617926461652992,50
599617926469338880,50
599617926477024768,50
599617926484710528,50
599617926492396416,50
599617926500082304,53
599617926507768192,48
599617926515454080,50
599617926523139968,55
599617926530825728,53
599617926538511616,53
599617926546197504,50
599617926553883392,45
599617926561569280,60
599617926569255168,89
599617926576940928,103
599617926584626816,94
599617926592312704,84
599617926599998592,74
599617926607684480,55
599617926615370368,45
599617926623056256,55
599617926630742016,58
599617926638427904,50
599617926646113792,53
599617926653799680,62
599617926661485568,62
599617926669171340,53
599617926676856832,41
599617926684542336,-26
599617926692227712,-118
599617926699913216,-19
599617926707598592,381
599617926715284096,761
599617926722969472,650
599617926730654976,132
599617926738340480,-159
599617926746025856,-89
599617926753711360,-31
599617926761396736,-9
599617926769082240,53
599617926776767616,55
599617926784453120,29
599617926792138624,45
599617926799824000,60
599617926807509504,55
599617926815194880,58
599617926822880384,60
599617926830565888,65
599617926838251264,77
599617926845936768,79
599617926853622144,77
599617926861307648,79
599617926868993024,84
599617926876678528,89
599617926884364032,96
599617926892049408,101
599617926899734912,103
599617926907420288,106
599617926915105792,116
599617926922791168,125
599617926930476672,130
599617926938162176,137
599617926945847552,142
599617926953533056,140
599617926961218432,135
599617926968903936,137
599617926976589312,128
599617926984274816,111
599617926991960320,91
599617926999645696,65
599617927007331200,41
599617927015016576,26
599617927022702080,14
599617927030387456,7
599617927038072960,4
599617927045758464,-2
599617927053443840,-4
599617927061129344,0
599617927068814720,2
599617927076500224,7
599617927084185600,9
599617927091871104,4
599617927099556608,9
599617927107241984,14
599617927114927488,16
599617927122612864,16
599617927130298368,14
599617927137983872,19
599617927145669248,26
599617927153354752,24
599617927161040128,29
599617927168725632,36
599617927176411008,36
599617927184096512,36
599617927191782016,38
599617927199467392,41
599617927207152896,36
599617927214838272,36
599617927222523776,45
599617927230209165,41
599617927237895040,36
599617927245580928,41
599617927253266816,43
599617927260952704,41
599617927268638464,38
599617927276324352,36
599617927284010240,33
599617927291696128,36
599617927299382016,36
599617927307067904,31
599617927314753664,33
599617927322439552,33
599617927330125440,31
599617927337811328,29
599617927345497216,31
599617927353183104,33
599617927360868864,33
599617927368554752,31
599617927376240640,29
599617927383926528,31
599617927391612416,31
599617927399298304,31
599617927406984192,26
599617927414669952,29
599617927422355840,31
599617927430041728,29
599617927437727616,26
599617927445413504,29
599617927453099392,31
599617927460785152,26
599617927468471040,24
599617927476156928,26
599617927483842816,26
599617927491528704,24
599617927499214592,29
599617927506900352,29
599617927514586240,26
599617927522272128,29
599617927529958016,33
599617927537643904,31
599617927545329792,29
599617927553015680,31
599617927560701440,26
599617927568387328,26
599617927576073216,31
599617927583759104,31
599617927591444992,26
599617927599130880,29
599617927606816640,26
599617927614502528,19
599617927622188416,26
599617927629874304,55
599617927637560192,82
599617927645246080,79
599617927652931840,60
599617927660617728,45
599617927668303616,29
599617927675989504,21
599617927683675392,26
599617927691361280,29
599617927699047040,19
599617927706732928,16
599617927714418816,24
599617927722104704,21
599617927729790592,24
599617927737476480,9
599617927745162368,-77
599617927752848128,-183
599617927760534016,-67
599617927768219904,391
599617927775905792,855
599617927783591680,775
599617927791277508,186
599617927798963072,-193
599617927806648576,-135
599617927814333952,-53
599617927822019456,-38
599617927829704832,4
599617927837390336,4
599617927845075712,-16
599617927852761216,0
599617927860446720,12
599617927868132096,7
599617927875817600,12
599617927883502976,21
599617927891188480,19
599617927898873856,21
599617927906559360,31
599617927914244864,38
599617927921930240,36
599617927929615744,41
599617927937301120,53
599617927944986624,58
599617927952672128,53
599617927960357504,62
599617927968043008,77
599617927975728384,82
599617927983413888,87
599617927991099264,89
599617927998784768,96
599617928006470272,106
599617928014155648,111
599617928021841152,111
599617928029526528,106
599617928037212032,99
599617928044897408,84
599617928052582912,65
599617928060268416,41
599617928067953792,9
599617928075639296,-7
599617928083324672,-14
599617928091010176,-24
599617928098695552,-33
599617928106381056,-38
599617928114066560,-31
599617928121751936,-24
599617928129437440,-26
599617928137122816,-26
599617928144808320,-21
599617928152493696,-19
599617928160179200,-14
599617928167864704,-14
599617928175550080,-12
599617928183235584,-12
599617928190920960,-9
599617928198606464,-7
599617928206291840,-7
599617928213977344,-4
599617928221662848,-2
599617928229348224,0
599617928237033728,2
599617928244719104,2
599617928252404608,-2
599617928260090112,0
599617928267775488,4
599617928275460992,2
599617928283146368,0
599617928290831872,0
599617928298517248,2
599617928306202752,2
599617928313888256,2
599617928321573632,2
599617928329259136,0
599617928336944512,0
599617928344630016,0
599617928352315333,0
599617928360001280,2
599617928367687168,2
599617928375373056,2
599617928383058944,2
599617928390744704,4
599617928398430592,4
599617928406116480,2
599617928413802368,4
599617928421488256,9
599617928429174144,7
599617928436859904,7
599617928444545792,9
599617928452231680,7
599617928459917568,7
599617928467603456,9
599617928475289344,12
599617928482975104,12
599617928490660992,14
599617928498346880,16
599617928506032768,14
599617928513718656,16
599617928521404544,19
599617928529090432,14
599617928536776192,9
599617928544462080,14
599617928552147968,14
599617928559833856,14
599617928567519744,14
599617928575205632,16
599617928582891392,16
599617928590577280,16
599617928598263168,19
599617928605949056,21
599617928613634944,24
599617928621320832,24
599617928629006592,21
599617928636692480,21
599617928644378368,24
599617928652064256,24
599617928659750144,21
599617928667436032,14
599617928675121920,4
599617928682807680,12
599617928690493568,45
599617928698179456,77
599617928705865344,67
599617928713551232,48
599617928721237120,38
599617928728922880,19
599617928736608768,4
599617928744294656,12
599617928751980544,14
599617928759666432,7
599617928767352320,9
599617928775038080,12
599617928782723968,9
599617928790409856,7
599617928798095744,-16
599617928805781632,-120
599617928813467520,-222
599617928821153280,-48
599617928828839168,488
599617928836525056,966
599617928844210944,800
599617928851896832,135
599617928859582720,-227
599617928867268608,-142
599617928874954368,-62
599617928882640256,-50
599617928890326144,-19
599617928898012032,-24
599617928905697920,-38
599617928913383676,-21
599617928921069184,-12
599617928928754688,-14
599617928936440192,-9
599617928944125696,-2
599617928951811200,0
599617928959496832,4
599617928967182336,7
599617928974867840,12
599617928982553344,16
599617928990238848,21
599617928997924352,26
599617929005609856,31
599617929013295360,33
599617929020980992,41
599617929028666496,45
599617929036352000,48
599617929044037504,50
599617929051723008,60
599617929059408512,67
599617929067094016,67
599617929074779520,70
599617929082465152,74
599617929090150656,67
599617929097836160,62
599617929105521664,58
599617929113207168,38
599617929120892672,9
599617929128578176,-9
599617929136263680,-19
599617929143949184,-31
599617929151634816,-43
599617929159320320,-45
599617929167005824,-45
599617929174691328,-43
599617929182376832,-41
599617929190062336,-41
599617929197747840,-33
599617929205433344,-29
599617929213118976,-31
599617929220804480,-29
599617929228489984,-21
599617929236175488,-21
599617929243860992,-19
599617929251546496,-16
599617929259232000,-14
599617929266917504,-14
599617929274603136,-12
599617929282288640,-12
599617929289974144,-12
599617929297659648,-12
599617929305345152,-9
599617929313030656,-7
599617929320716160,-4
599617929328401664,-4
599617929336087168,-2
599617929343772800,-2
599617929351458304,0
599617929359143808,0
599617929366829312,-2
599617929374514816,-2
599617929382200320,0
599617929389885824,0
599617929397571328,0
599617929405256960,0
599617929412942464,-2
599617929420627968,-4
599617929428313472,-2
599617929435998976,0
599617929443684480,-2
599617929451369984,-2
599617929459055488,2
599617929466741120,-2
599617929474426592,-2
599617929482112384,2
599617929489798144,0
599617929497484032,-4
599617929505169792,0
599617929512855552,0
599617929520541312,-2
599617929528227200,-2
599617929535912960,0
599617929543598720,2
599617929551284608,2
599617929558970368,2
599617929566656128,2
599617929574342016,2
599617929582027776,2
599617929589713536,2
599617929597399296,4
599617929605085184,7
599617929612770944,7
599617929620456704,7
599617929628142592,4
599617929635828352,7
599617929643514112,14
599617929651200000,12
599617929658885760,4
599617929666571520,4
599617929674257280,4
599617929681943168,4
599617929689628928,7
599617929697314688,0
599617929705000576,-14
599617929712686336,-14
599617929720372096,16
599617929728057984,53
599617929735743744,58
599617929743429504,45
599617929751115264,31
599617929758801152,12
599617929766486912,-2
599617929774172672,2
599617929781858560,7
599617929789544320,2
599617929797230080,4
599617929804915840,7
599617929812601728,4
599617929820287488,7
599617929827973248,-12
599617929835659136,-116
599617929843344896,-248
599617929851030656,-108
599617929858716544,451
599617929866402304,1041
599617929874088064,990
599617929881773824,297
599617929889459712,-203
599617929897145472,-166
599617929904831232,-58
599617929912517120,-55
599617929920202880,-45
599617929927888640,-48
599617929935574528,-53
599617929943260288,-36
599617929950946048,-26
599617929958631808,-26
599617929966317696,-16
599617929974003456,-12
599617929981689216,-12
599617929989375104,-4
599617929997060864,2
599617930004746624,4
599617930012432384,7
599617930020118272,16
599617930027804032,21
599617930035489848,26
599617930043175296,31
599617930050860800,33
599617930058546176,41
599617930066231680,48
599617930073917056,50
599617930081602560,58
599617930089287936,65
599617930096973440,67
599617930104658944,70
599617930112344320,67
599617930120029824,62
599617930127715200,62
599617930135400704,60
599617930143086080,43
599617930150771584,21
599617930158457088,9
599617930166142464,-4
599617930173827968,-19
599617930181513344,-29
599617930189198848,-31
599617930196884352,-31
599617930204569728,-31
599617930212255232,-31
599617930219940608,-29
599617930227626112,-24
599617930235311488,-19
599617930242996992,-19
599617930250682496,-14
599617930258367872,-12
599617930266053376,-12
599617930273738752,-7
599617930281424256,-4
599617930289109632,-4
599617930296795136,-4
599617930304480640,-4
599617930312166016,0
599617930319851520,2
599617930327536896,-4
599617930335222400,0
599617930342907776,4
599617930350593280,0
599617930358278784,0
599617930365964160,4
599617930373649664,4
599617930381335040,2
599617930389020544,0
599617930396705920,0
599617930404391424,0
599617930412076928,0
599617930419762304,0
599617930427447808,2
599617930435133184,2
599617930442818688,2
599617930450504064,2
599617930458189568,2
599617930465875072,2
599617930473560448,2
599617930481245952,2
599617930488931328,4
599617930496616832,7
599617930504302336,7
599617930511987712,7
599617930519673216,7
599617930527358592,7
599617930535044096,9
599617930542729472,9
599617930550414976,7
599617930558100480,7
599617930565785856,7
599617930573471360,4
599617930581156736,9
599617930588842240,9
599617930596527673,9
599617930604213504,9
599617930611899392,9
599617930619585280,7
599617930627271168,7
599617930634956928,9
599617930642642816,12
599617930650328704,12
599617930658014592,9
599617930665700480,9
599617930673386368,12
599617930681072128,14
599617930688758016,9
599617930696443904,7
599617930704129792,4
599617930711815680,7
599617930719501568,0
599617930727187328,-4
599617930734873216,21
599617930742559104,62
599617930750244992,74
599617930757930880,62
599617930765616768,45
599617930773302656,21
599617930780988416,4
599617930788674304,9
599617930796360192,19
599617930804046080,14
599617930811731968,9
599617930819417856,16
599617930827103616,16
599617930834789504,12
599617930842475392,-2
599617930850161280,-99
599617930857847168,-244
599617930865533056,-147
599617930873218816,398
599617930880904704,1070
599617930888590592,1145
599617930896276480,454
599617930903962368,-169
599617930911648256,-195
599617930919334144,-58
599617930927019904,-41
599617930934705792,-45
599617930942391680,-45
599617930950077568,-43
599617930957763456,-33
599617930965449344,-26
599617930973135104,-19
599617930980820992,-14
599617930988506880,-9
599617930996192768,-2
599617931003878656,4
599617931011564544,7
599617931019250304,9
599617931026936192,16
599617931034622080,21
599617931042307968,26
599617931049993856,33
599617931057679744,43
599617931065365504,48
599617931073051392,53
599617931080737280,60
599617931088423168,65
599617931096109056,70
599617931103794944,79
599617931111480832,84
599617931119166592,87
599617931126852480,89
599617931134538368,89
599617931142224256,84
599617931149910144,74
599617931157596016,60
599617931165281536,36
599617931172967040,12
599617931180652416,-2
599617931188337920,-12
599617931196023296,-24
599617931203708800,-31
599617931211394176,-31
599617931219079680,-29
599617931226765184,-29
599617931234450560,-26
599617931242136064,-21
599617931249821440,-16
599617931257506944,-14
599617931265192320,-12
599617931272877824,-12
599617931280563328,-9
599617931288248704,-7
599617931295934208,-4
599617931303619584,-2
599617931311305088,0
599617931318990592,2
599617931326675968,4
599617931334361472,7
599617931342046848,7
599617931349732352,7
599617931357417728,7
599617931365103232,4
599617931372788736,4
599617931380474112,9
599617931388159616,7
599617931395844992,7
599617931403530496,4
599617931411215872,4
599617931418901376,7
599617931426586880,7
599617931434272256,4
599617931441957760,4
599617931449643136,7
599617931457328640,7
599617931465014016,7
599617931472699520,7
599617931480385024,9
599617931488070400,12
599617931495755904,12
599617931503441280,9
599617931511126784,12
599617931518812160,14
599617931526497664,14
599617931534183168,14
599617931541868544,14
599617931549554048,12
599617931557239424,14
599617931564924928,14
599617931572610304,14
599617931580295808,14
599617931587981312,14
599617931595666688,16
599617931603352192,16
599617931611037568,14
599617931618723072,14
599617931626408576,19
599617931634093952,16
599617931641779456,14
599617931649464832,16
599617931657150336,19
599617931664835712,21
599617931672521216,19
599617931680206720,19
599617931687892096,19
599617931695577600,19
599617931703262976,19
599617931710948480,9
599617931718633841,0
599617931726319360,16
599617931734004864,58
599617931741690240,84
599617931749375744,72
599617931757061120,53
599617931764746624,31
599617931772432000,4
599617931780117504,7
599617931787803008,16
599617931795488384,14
599617931803173888,12
599617931810859264,16
599617931818544768,19
599617931826230144,14
599617931833915648,4
599617931841601152,-79
599617931849286528,-232
599617931856972032,-176
599617931864657408,335
599617931872342912,1032
599617931880028416,1193
599617931887713792,536
599617931895399296,-157
599617931903084672,-241
599617931910770176,-94
599617931918455552,-43
599617931926141056,-29
599617931933826560,-41
599617931941511936,-50
599617931949197440,-29
599617931956882816,-19
599617931964568320,-19
599617931972253696,-7
599617931979939200,2
599617931987624704,4
599617931995310080,9
599617932002995584,16
599617932010680960,19
599617932018366464,29
599617932026051840,36
599617932033737344,41
599617932041422848,43
599617932049108224,50
599617932056793728,58
599617932064479104,62
599617932072164608,70
599617932079849984,77
599617932087535488,84
599617932095220992,91
599617932102906368,96
599617932110591872,99
599617932118277248,101
599617932125962752,96
599617932133648128,91
599617932141333632,82
599617932149019136,60
599617932156704512,38
599617932164390016,16
599617932172075392,-4
599617932179760896,-19
599617932187446400,-26
599617932195131776,-31
599617932202817280,-36
599617932210502656,-36
599617932218188160,-33
599617932225873536,-31
599617932233559040,-26
599617932241244544,-21
599617932248929920,-21
599617932256615424,-21
599617932264300800,-21
599617932271986304,-14
599617932279671666,-9
599617932287357568,-9
599617932295043456,-9
599617932302729344,-4
599617932310415232,-2
599617932318100992,-2
599617932325786880,-2
599617932333472768,-4
599617932341158656,-4
599617932348844544,-2
599617932356530432,-2
599617932364216192,-2
599617932371902080,-2
599617932379587968,0
599617932387273856,0
599617932394959744,0
599617932402645632,0
599617932410331392,2
599617932418017280,0
599617932425703168,-4
599617932433389056,-2
599617932441074944,2
599617932448760832,0
599617932456446720,0
599617932464132480,0
599617932471818368,2
599617932479504256,2
599617932487190144,4
599617932494876032,4
599617932502561920,2
599617932510247680,2
599617932517933568,4
599617932525619456,4
599617932533305344,7
599617932540991232,7
599617932548677120,7
599617932556362880,9
599617932564048768,12
599617932571734656,9
599617932579420544,9
599617932587106432,12
599617932594792320,12
599617932602478208,9
599617932610163968,9
599617932617849856,9
599617932625535744,9
599617932633221632,7
599617932640907520,9
599617932648593408,7
599617932656279168,4
599617932663965056,2
599617932671650944,2
599617932679336832,-2
599617932687022720,-9
599617932694708608,14
599617932702394368,58
599617932710080256,72
599617932717766144,55
599617932725452032,31
599617932733137920,12
599617932740823808,0
599617932748509696,4
599617932756195456,9
599617932763881344,4
599617932771567232,7
599617932779253120,9
599617932786939008,9
599617932794624896,7
599617932802310656,-14
599617932809996544,-125
599617932817682432,-253
599617932825368320,-77
599617932833054208,526
599617932840740013,1111
599617932848425472,964
599617932856110976,152
599617932863796352,-352
599617932871481856,-263
599617932879167232,-140
599617932886852736,-77
599617932894538112,9
599617932902223616,-7
599617932909909120,-43
599617932917594496,-9
599617932925280000,4
599617932932965376,-7
599617932940650880,4
599617932948336256,16
599617932956021760,19
599617932963707264,21
599617932971392640,26
599617932979078144,33
599617932986763520,38
599617932994449024,45
599617933002134528,50
599617933009819904,55
599617933017505408,70
599617933025190784,77
599617933032876288,84
599617933040561664,94
599617933048247168,101
599617933055932672,108
599617933063618048,120
599617933071303552,128
599617933078988928,128
599617933086674432,128
599617933094359808,125
599617933102045312,113
599617933109730816,96
599617933117416192,67
599617933125101696,29
599617933132787072,-2
599617933140472576,-24
599617933148157952,-41
599617933155843456,-48
599617933163528960,-53
599617933171214336,-58
599617933178899840,-55
599617933186585216,-50
599617933194270720,-45
599617933201956096,-48
599617933209641600,-45
599617933217327104,-38
599617933225012480,-33
599617933232697984,-33
599617933240383360,-31
599617933248068864,-29
599617933255754240,-26
599617933263439744,-21
599617933271125248,-19
599617933278810624,-16
599617933286496128,-16
599617933294181504,-16
599617933301867008,-16
599617933309552512,-14
599617933317237888,-12
599617933324923392,-14
599617933332608768,-16
599617933340294272,-16
599617933347979648,-14
599617933355665152,-9
599617933363350656,-12
599617933371036032,-12
599617933378721536,-9
599617933386406912,-12
599617933394092416,-12
599617933401777838,-9
599617933409463296,-9
599617933417148800,-9
599617933424834176,-9
599617933432519680,-7
599617933440205056,-9
599617933447890560,-12
599617933455575936,-9
599617933463261440,-4
599617933470946944,-4
599617933478632320,-4
599617933486317824,-7
599617933494003200,-7
599617933501688704,-7
599617933509374080,-7
599617933517059584,-4
599617933524745088,-9
599617933532430464,-24
599617933540115968,-21
599617933547801344,14
599617933555486848,53
599617933563172352,55
599617933570857728,36
599617933578543232,19
599617933586228608,-2
599617933593914112,-14
599617933601599488,-9
599617933609284992,-4
599617933616970496,-7
599617933624655872,-7
599617933632341376,-4
599617933640026752,-2
599617933647712256,-2
599617933655397632,-16
599617933663083136,-108
599617933670768640,-236
599617933678454016,-106
599617933686139520,432
599617933693824896,971
599617933701510400,826
599617933709195776,53
599617933716881280,-396
599617933724566784,-275
599617933732252160,-169
599617933739937664,-116
599617933747623040,24
599617933755308544,38
599617933762993920,-21
599617933770679424,2
599617933778364928,29
599617933786050304,16
599617933793735808,21
599617933801421184,36
599617933809106688,36
599617933816792064,38
599617933824477568,50
599617933832163072,53
599617933839848448,55
599617933847533952,62
599617933855219328,72
599617933862904832,79
599617933870590336,87
599617933878275712,96
599617933885961216,103
599617933893646592,116
599617933901332096,125
599617933909017472,132
599617933916702976,142
599617933924388480,149
599617933932073856,152
599617933939759360,152
599617933947444736,147
599617933955130240,137
599617933962815663,106
599617933970501120,62
599617933978186624,19
599617933985872000,-12
599617933993557504,-36
599617934001242880,-55
599617934008928384,-70
599617934016613760,-70
599617934024299264,-62
599617934031984768,-60
599617934039670144,-65
599617934047355648,-62
599617934055041024,-55
599617934062726528,-50
599617934070411904,-45
599617934078097408,-43
599617934085782912,-38
599617934093468288,-36
599617934101153792,-33
599617934108839168,-29
599617934116524672,-24
599617934124210176,-21
599617934131895552,-19
599617934139581056,-16
599617934147266432,-19
599617934154951936,-21
599617934162637312,-19
599617934170322816,-16
599617934178008320,-16
599617934185693696,-16
599617934193379200,-14
599617934201064576,-14
599617934208750080,-19
599617934216435456,-21
599617934224120960,-19
599617934231806464,-14
599617934239491840,-16
599617934247177344,-19
599617934254862720,-16
599617934262548224,-12
599617934270233600,-14
599617934277919104,-14
599617934285604608,-14
599617934293289984,-12
599617934300975488,-16
599617934308660864,-4
599617934316346368,33
599617934324031744,55
599617934331717248,43
599617934339402752,33
599617934347088128,12
599617934354773632,-19
599617934362459008,-19
599617934370144512,-7
599617934377829888,-14
599617934385515392,-19
599617934393200896,-14
599617934400886272,-12
599617934408571776,-4
599617934416257152,0
599617934423942656,-24
599617934431628160,-116
599617934439313536,-232
599617934446999040,-120
599617934454684416,369
599617934462369920,872
599617934470055296,751
599617934477740800,48
599617934485426304,-377
599617934493111680,-280
599617934500797184,-176
599617934508482560,-111
599617934516168064,19
599617934523853488,26
599617934531538944,-24
599617934539224448,4
599617934546909824,29
599617934554595328,14
599617934562280704,21
599617934569966208,36
599617934577651584,33
599617934585337088,36
599617934593022592,43
599617934600707968,50
599617934608393472,55
599617934616078848,60
599617934623764352,67
599617934631449728,74
599617934639135232,87
599617934646820736,96
599617934654506112,103
599617934662191616,113
599617934669876992,125
599617934677562496,135
599617934685248000,140
599617934692933376,149
599617934700618880,157
599617934708304256,152
599617934715989760,142
599617934723675136,128
599617934731360640,94
599617934739046144,48
599617934746731520,12
599617934754417024,-12
599617934762102400,-36
599617934769787904,-53
599617934777473280,-60
599617934785158784,-58
599617934792844288,-62
599617934800529664,-65
599617934808215168,-55
599617934815900544,-53
599617934823586048,-53
599617934831271424,-48
599617934838956928,-43
599617934846642432,-48
599617934854327808,-45
599617934862013312,-41
599617934869698688,-36
599617934877384192,-29
599617934885069568,-26
599617934892755072,-24
599617934900440576,-21
599617934908125952,-21
599617934915811456,-14
599617934923496832,-9
599617934931182336,-9
599617934938867712,-12
599617934946553216,-9
599617934954238720,-4
599617934961924096,-7
599617934969609600,-9
599617934977294976,-9
599617934984980480,-7
599617934992665984,-7
599617935000351360,-7
599617935008036864,-7
599617935015722240,-4
599617935023407744,-9
599617935031093120,-9
599617935038778624,7
599617935046464128,41
599617935054149504,60
599617935061835008,50
599617935069520384,41
599617935077205888,24
599617935084891313,-2
599617935092576768,-7
599617935100262272,-4
599617935107947648,-4
599617935115633152,-4
599617935123318528,0
599617935131004032,-2
599617935138689408,0
599617935146374912,4
599617935154060416,-7
599617935161745792,-74
599617935169431296,-190
599617935177116672,-140
599617935184802176,282
599617935192487552,802
599617935200173056,795
599617935207858560,171
599617935215543936,-297
599617935223229440,-258
599617935230914816,-152
599617935238600320,-94
599617935246285824,14
599617935253971200,26
599617935261656704,-21
599617935269342080,-4
599617935277027584,24
599617935284712960,14
599617935292398464,14
599617935300083968,31
599617935307769344,33
599617935315454848,33
599617935323140224,45
599617935330825728,50
599617935338511104,53
599617935346196608,58
599617935353882112,58
599617935361567488,65
599617935369252992,79
599617935376938368,87
599617935384623872,89
599617935392309248,99
599617935399994752,108
599617935407680256,113
599617935415365632,120
599617935423051136,130
599617935430736512,132
599617935438422016,130
599617935446107392,125
599617935453792896,106
599617935461478400,74
599617935469163776,45
599617935476849280,16
599617935484534656,-12
599617935492220160,-29
599617935499905536,-36
599617935507591040,-43
599617935515276544,-45
599617935522961920,-45
599617935530647424,-41
599617935538332800,-38
599617935546018304,-36
599617935553703808,-33
599617935561389184,-31
599617935569074688,-29
599617935576760064,-26
599617935584445568,-29
599617935592130944,-26
599617935599816448,-14
599617935607501952,-12
599617935615187328,-9
599617935622872832,-4
599617935630558208,-4
599617935638243712,-4
599617935645929138,-2
599617935653614976,0
599617935661300864,-2
599617935668986752,0
599617935676672640,2
599617935684358400,2
599617935692044288,2
599617935699730176,2
599617935707416064,4
599617935715101952,9
599617935722787840,7
599617935730473600,7
599617935738159488,9
599617935745845376,9
599617935753531264,7
599617935761217152,9
599617935768903040,4
599617935776588800,14
599617935784274688,45
599617935791960576,65
599617935799646464,58
599617935807332352,53
599617935815018240,38
599617935822704128,9
599617935830389888,0
599617935838075776,7
599617935845761664,2
599617935853447552,-2
599617935861133440,2
599617935868819328,4
599617935876505088,2
599617935884190976,4
599617935891876864,9
599617935899562752,-33
599617935907248640,-145
599617935914934528,-178
599617935922620288,108
599617935930306176,623
599617935937992064,826
599617935945677952,389
599617935953363840,-166
599617935961049728,-263
599617935968735616,-137
599617935976421376,-79
599617935984107264,-14
599617935991793152,21
599617935999479040,-9
599617936007164928,-9
599617936014850816,16
599617936022536576,9
599617936030222464,9
599617936037908352,24
599617936045594240,26
599617936053280128,24
599617936060966016,36
599617936068651776,43
599617936076337664,45
599617936084023552,50
599617936091709440,55
599617936099395328,60
599617936107081216,67
599617936114767104,77
599617936122452864,84
599617936130138752,91
599617936137824640,106
599617936145510528,108
599617936153196416,108
599617936160882304,116
599617936168568064,120
599617936176253952,120
599617936183939840,116
599617936191625728,103
599617936199311616,77
599617936206997485,48
599617936214683008,24
599617936222368512,4
599617936230053888,-7
599617936237739392,-16
599617936245424768,-26
599617936253110272,-29
599617936260795648,-24
599617936268481152,-24
599617936276166656,-21
599617936283852032,-21
599617936291537536,-21
599617936299222912,-14
599617936306908416,-9
599617936314593792,-12
599617936322279296,-9
599617936329964800,-7
599617936337650176,-7
599617936345335680,-7
599617936353021056,-2
599617936360706560,2
599617936368392064,2
599617936376077440,4
599617936383762944,4
599617936391448320,4
599617936399133824,9
599617936406819200,9
599617936414504704,9
599617936422190208,9
599617936429875584,7
599617936437561088,9
599617936445246464,12
599617936452931968,9
599617936460617344,4
599617936468302848,9
599617936475988352,12
599617936483673728,7
599617936491359232,9
599617936499044608,12
599617936506730112,7
599617936514415488,12
599617936522100992,16
599617936529786496,12
599617936537471872,7
599617936545157376,4
599617936552842752,4
599617936560528256,4
599617936568213632,0
599617936575899136,2
599617936583584640,24
599617936591270016,58
599617936598955520,62
599617936606640896,58
599617936614326400,55
599617936622011776,31
599617936629697280,9
599617936637382784,14
599617936645068160,19
599617936652753664,12
599617936660439040,9
599617936668124544,12
599617936675810048,12
599617936683495424,9
599617936691180928,12
599617936698866304,2
599617936706551808,-65
599617936714237184,-169
599617936721922688,-106
599617936729608192,273
599617936737293568,710
599617936744979072,676
599617936752664448,142
599617936760349952,-239
599617936768035310,-186
599617936775720832,-77
599617936783406336,-43
599617936791091712,9
599617936798777216,16
599617936806462592,-7
599617936814148096,7
599617936821833472,24
599617936829518976,14
599617936837204480,16
599617936844889856,31
599617936852575360,33
599617936860260736,33
599617936867946240,36
599617936875631616,43
599617936883317120,43
599617936891002624,50
599617936898688000,55
599617936906373504,55
599617936914058880,62
599617936921744384,72
599617936929429888,77
599617936937115264,84
599617936944800768,89
599617936952486144,91
599617936960171648,94
599617936967857024,99
599617936975542528,103
599617936983228032,101
599617936990913408,91
599617936998598912,79
599617937006284288,58
599617937013969792,33
599617937021655168,12
599617937029340672,-7
599617937037026176,-19
599617937044711552,-26
599617937052397056,-31
599617937060082432,-33
599617937067767936,-33
599617937075453312,-26
599617937083138816,-24
599617937090824320,-21
599617937098509696,-19
599617937106195200,-16
599617937113880576,-14
599617937121566080,-14
599617937129251456,-14
599617937136936960,-7
599617937144622464,-7
599617937152307840,-7
599617937159993344,-4
599617937167678720,-2
599617937175364224,-2
599617937183049600,-9
599617937190735104,-7
599617937198420608,2
599617937206105984,2
599617937213791488,2
599617937221476864,4
599617937229162368,4
599617937236847872,12
599617937244533248,14
599617937252218752,7
599617937259904128,4
599617937267589632,4
599617937275275008,9
599617937282960512,12
599617937290646016,12
599617937298331392,9
599617937306016896,9
599617937313702272,12
599617937321387776,14
599617937329073135,16
599617937336758656,19
599617937344444160,16
599617937352129536,14
599617937359815040,21
599617937367500416,19
599617937375185920,14
599617937382871296,21
599617937390556800,24
599617937398242304,16
599617937405927680,16
599617937413613184,24
599617937421298560,26
599617937428984064,24
599617937436669440,26
599617937444354944,29
599617937452040448,29
599617937459725824,36
599617937467411328,38
599617937475096704,29
599617937482782208,26
599617937490467712,33
599617937498153088,33
599617937505838592,29
599617937513523968,33
599617937521209472,38
599617937528894848,31
599617937536580352,31
599617937544265856,33
599617937551951232,36
599617937559636736,36
599617937567322112,38
599617937575007616,41
599617937582692992,33
599617937590378496,31
599617937598064000,38
599617937605749376,36
599617937613434880,31
599617937621120256,31
599617937628805760,33
599617937636491136,31
599617937644176640,31
599617937651862144,33
599617937659547520,33
599617937667233024,26
599617937674918400,26
599617937682603904,31
599617937690289280,26
599617937697974784,31
599617937705660288,62
599617937713345664,77
599617937721031168,65
599617937728716544,58
599617937736402048,50
599617937744087424,31
599617937751772928,16
599617937759458432,24
599617937767143808,31
599617937774829312,26
599617937782514688,24
599617937790200192,29
599617937797885696,31
599617937805571072,26
599617937813256576,12
599617937820941952,-62
599617937828627456,-152
599617937836312832,-21
599617937843998336,391
599617937851683840,739
599617937859369216,582
599617937867054720,60
599617937874740096,-205
599617937882425600,-116
599617937890110960,-45
599617937897796480,-26
599617937905481984,21
599617937913167360,19
599617937920852864,-2
599617937928538240,14
599617937936223744,24
599617937943909120,14
599617937951594624,24
599617937959280128,33
599617937966965504,31
599617937974651008,33
599617937982336384,45
599617937990021888,50
599617937997707264,43
599617938005392768,43
599617938013078272,55
599617938020763648,58
599617938028449152,53
599617938036134528,62
599617938043820032,70
599617938051505536,70
599617938059190912,74
599617938066876416,77
599617938074561792,82
599617938082247296,82
599617938089932672,79
599617938097618176,79
599617938105303680,72
599617938112989056,65
599617938120674560,60
599617938128359936,48
599617938136045440,31
599617938143730816,16
599617938151416320,2
599617938159101824,-9
599617938166787200,-12
599617938174472704,-9
599617938182158080,-4
599617938189843584,-14
599617938197528960,-19
599617938205214464,-7
599617938212899968,-2
599617938220585344,-4
599617938228270848,-4
599617938235956224,-4
599617938243641728,-4
599617938251327104,-2
599617938259012608,4
599617938266698112,7
599617938274383488,2
599617938282068992,4
599617938289754368,14
599617938297439872,14
599617938305125248,4
599617938312810752,9
599617938320496256,12
599617938328181632,7
599617938335867136,9
599617938343552512,12
599617938351238016,7
599617938358923520,7
599617938366608896,7
599617938374294400,7
599617938381979776,9
599617938389665280,14
599617938397350656,14
599617938405036160,12
599617938412721664,16
599617938420407040,24
599617938428092544,21
599617938435777920,16
599617938443463424,21
599617938451148785,16
599617938458834304,16
599617938466519808,24
599617938474205184,24
599617938481890688,19
599617938489576064,21
599617938497261568,21
599617938504946944,19
599617938512632448,19
599617938520317952,24
599617938528003328,21
599617938535688832,16
599617938543374208,16
599617938551059712,24
599617938558745088,29
599617938566430592,24
599617938574116096,19
599617938581801472,16
599617938589486976,21
599617938597172352,21
599617938604857856,21
599617938612543360,24
599617938620228736,24
599617938627914240,21
599617938635599616,24
599617938643285120,24
599617938650970496,16
599617938658656000,24
599617938666341504,26
599617938674026880,19
599617938681712384,21
599617938689397760,41
599617938697083264,60
599617938704768640,62
599617938712454144,55
599617938720139648,43
599617938727825024,29
599617938735510528,14
599617938743195904,9
599617938750881408,12
599617938758566784,19
599617938766252288,19
599617938773937792,16
599617938781623168,16
599617938789308672,21
599617938796994048,21
599617938804679552,-14
599617938812364928,-99
599617938820050432,-128
599617938827735936,82
599617938835421312,488
599617938843106816,671
599617938850792192,350
599617938858477696,-89
599617938866163072,-174
599617938873848576,-74
599617938881534080,-48
599617938889219456,-12
599617938896904960,26
599617938904590336,7
599617938912275840,9
599617938919961344,33
599617938927646720,26
599617938935332224,16
599617938943017600,29
599617938950703104,38
599617938958388480,38
599617938966073984,41
599617938973759488,43
599617938981444864,41
599617938989130368,48
599617938996815744,55
599617939004501248,55
599617939012186610,60
599617939019872128,62
599617939027557632,62
599617939035243008,70
599617939042928512,74
599617939050613888,79
599617939058299392,87
599617939065984768,84
599617939073670272,87
599617939081355776,87
599617939089041152,77
599617939096726656,74
599617939104412032,70
599617939112097536,45
599617939119782912,21
599617939127468416,7
599617939135153920,-2
599617939142839296,-12
599617939150524800,-19
599617939158210176,-16
599617939165895680,-16
599617939173581184,-26
599617939181266560,-21
599617939188952064,-12
599617939196637440,-14
599617939204322944,-12
599617939212008320,-7
599617939219693824,-7
599617939227379328,-7
599617939235064704,-4
599617939242750208,-2
599617939250435584,0
599617939258121088,2
599617939265806464,2
599617939273491968,4
599617939281177472,4
599617939288862848,-2
599617939296548352,4
599617939304233728,16
599617939311919232,14
599617939319604608,12
599617939327290112,14
599617939334975616,12
599617939342660992,12
599617939350346496,19
599617939358031872,19
599617939365717376,14
599617939373402752,19
599617939381088256,29
599617939388773760,26
599617939396459136,16
599617939404144640,14
599617939411830016,21
599617939419515520,21
599617939427201024,19
599617939434886400,19
599617939442571904,19
599617939450257280,19
599617939457942784,19
599617939465628160,16
599617939473313664,21
599617939480999168,21
599617939488684544,19
599617939496370048,21
599617939504055424,21
599617939511740928,21
599617939519426304,24
599617939527111808,21
599617939534797312,19
599617939542482688,21
599617939550168192,24
599617939557853568,21
599617939565539072,21
599617939573224439,26
599617939580910336,26
599617939588596224,21
599617939596282112,24
599617939603968000,24
599617939611653760,26
599617939619339648,29
599617939627025536,26
599617939634711424,26
599617939642397312,29
599617939650083200,21
599617939657768960,9
599617939665454848,7
599617939673140736,12
599617939680826624,9
599617939688512512,2
599617939696198400,4
599617939703884160,4
599617939711570048,4
599617939719255936,7
599617939726941824,21
599617939734627712,43
599617939742313600,48
599617939749999488,38
599617939757685248,31
599617939765371136,21
599617939773057024,4
599617939780742912,0
599617939788428800,9
599617939796114688,12
599617939803800448,7
599617939811486336,7
599617939819172224,7
599617939826858112,9
599617939834544000,12
599617939842229888,-19
599617939849915648,-101
599617939857601536,-137
599617939865287424,60
599617939872973312,454
599617939880659200,650
599617939888345088,362
599617939896030976,-79
599617939903716736,-188
599617939911402624,-82
599617939919088512,-41
599617939926774400,-12
599617939934460288,21
599617939942146176,7
599617939949831936,4
599617939957517824,24
599617939965203712,24
599617939972889600,24
599617939980575488,33
599617939988261376,33
599617939995947136,33
599617940003633024,38
599617940011318912,41
599617940019004800,45
599617940026690688,50
599617940034376576,50
599617940042062336,55
599617940049748224,62
599617940057434112,62
599617940065120000,67
599617940072805888,77
599617940080491776,79
599617940088177664,82
599617940095863424,87
599617940103549312,91
599617940111235200,94
599617940118921088,96
599617940126606976,91
599617940134292782,84
599617940141978240,74
599617940149663744,58
599617940157349120,38
599617940165034624,19
599617940172720000,4
599617940180405504,-7
599617940188090880,-14
599617940195776384,-16
599617940203461888,-21
599617940211147264,-26
599617940218832768,-16
599617940226518144,-14
599617940234203648,-19
599617940241889024,-19
599617940249574528,-9
599617940257260032,-9
599617940264945408,-12
599617940272630912,-12
599617940280316288,-4
599617940288001792,0
599617940295687296,-2
599617940303372672,0
599617940311058176,4
599617940318743552,2
599617940326429056,2
599617940334114432,9
599617940341799936,12
599617940349485440,9
599617940357170816,9
599617940364856320,12
599617940372541696,14
599617940380227200,16
599617940387912576,9
599617940395598080,12
599617940403283584,16
599617940410968960,14
599617940418654464,12
599617940426339840,16
599617940434025344,19
599617940441710720,14
599617940449396224,16
599617940457081728,19
599617940464767104,19
599617940472452608,16
599617940480137984,14
599617940487823488,16
599617940495508864,19
599617940503194368,16
599617940510879872,14
599617940518565248,24
599617940526250752,26
599617940533936128,21
599617940541621632,21
599617940549307008,26
599617940556992512,29
599617940564678016,26
599617940572363392,24
599617940580048896,21
599617940587734272,24
599617940595419776,24
599617940603105280,21
599617940610790656,21
599617940618476160,24
599617940626161536,26
599617940633847040,26
599617940641532416,24
599617940649217920,26
599617940656903424,31
599617940664588800,29
599617940672274304,26
599617940679959680,29
599617940687645184,26
599617940695330607,26
599617940703016064,26
599617940710701568,26
599617940718386944,26
599617940726072448,29
599617940733757824,31
599617940741443328,29
599617940749128704,26
599617940756814208,33
599617940764499712,31
599617940772185088,24
599617940779870592,26
599617940787555968,38
599617940795241472,36
599617940802926848,24
599617940810612352,31
599617940818297856,55
599617940825983232,67
599617940833668736,70
599617940841354112,60
599617940849039616,48
599617940856725120,33
599617940864410496,19
599617940872096000,19
599617940879781376,31
599617940887466880,24
599617940895152256,16
599617940902837760,24
599617940910523264,24
599617940918208640,19
599617940925894144,9
599617940933579520,-45
599617940941265024,-145
599617940948950400,-94
599617940956635904,273
599617940964321408,696
599617940972006784,669
599617940979692288,164
599617940987377664,-205
599617940995063168,-164
599617941002748544,-70
599617941010434048,-43
599617941018119552,14
599617941025804928,26
599617941033490432,0
599617941041175808,14
599617941048861312,26
599617941056546688,21
599617941064232192,26
599617941071917696,33
599617941079603072,33
599617941087288576,36
599617941094973952,41
599617941102659456,43
599617941110344832,43
599617941118030336,50
599617941125715840,55
599617941133401216,60
599617941141086720,70
599617941148772096,72
599617941156457600,72
599617941164143104,77
599617941171828480,82
599617941179513984,89
599617941187199360,96
599617941194884864,101
599617941202570240,99
599617941210255744,96
599617941217941248,99
599617941225626624,89
599617941233312128,77
599617941240997504,62
599617941248683008,43
599617941256368432,21
599617941264054272,2
599617941271740160,-7
599617941279426048,-9
599617941287111936,-12
599617941294797696,-16
599617941302483584,-16
599617941310169472,-14
599617941317855360,-16
599617941325541248,-16
599617941333227136,-9
599617941340912896,-7
599617941348598784,-9
599617941356284672,-9
599617941363970560,-2
599617941371656448,-2
599617941379342336,-4
599617941387028096,-2
599617941394713984,7
599617941402399872,7
599617941410085760,4
599617941417771648,12
599617941425457536,14
599617941433143424,9
599617941440829184,12
599617941448515072,19
599617941456200960,16
599617941463886848,14
599617941471572736,19
599617941479258624,16
599617941486944384,14
599617941494630272,16
599617941502316160,14
599617941510002048,12
599617941517687936,14
599617941525373824,14
599617941533059584,12
599617941540745472,12
599617941548431360,12
599617941556117248,12
599617941563803136,14
599617941571489024,14
599617941579174912,9
599617941586860672,12
599617941594546560,14
599617941602232448,14
599617941609918336,12
599617941617604224,14
599617941625290112,12
599617941632975872,9
599617941640661760,12
599617941648347648,12
599617941656033536,9
599617941663719424,4
599617941671405312,7
599617941679091072,12
599617941686776960,9
599617941694462848,7
599617941702148736,2
599617941709834624,2
599617941717520512,7
599617941725206272,4
599617941732892160,4
599617941740578048,2
599617941748263936,2
599617941755949824,4
599617941763635712,7
599617941771321600,7
599617941779007360,4
599617941786693248,7
599617941794379136,12
599617941802065024,7
599617941809750912,4
599617941817436775,12
599617941825122304,9
599617941832807808,0
599617941840493184,9
599617941848178688,43
599617941855864064,60
599617941863549568,50
599617941871234944,41
599617941878920448,36
599617941886605952,14
599617941894291328,0
599617941901976832,7
599617941909662208,9
599617941917347712,4
599617941925033088,9
599617941932718592,9
599617941940404096,4
599617941948089472,7
599617941955774976,-7
599617941963460352,-94
599617941971145856,-200
599617941978831360,-82
599617941986516736,384
599617941994202240,848
599617942001887616,737
599617942009573120,116
599617942017258496,-261
599617942024944000,-181
599617942032629504,-94
599617942040314880,-72
599617942048000384,-14
599617942055685760,-14
599617942063371264,-43
599617942071056640,-24
599617942078742144,-12
599617942086427648,-16
599617942094113024,-9
599617942101798528,-2
599617942109483904,-2
599617942117169408,2
599617942124854784,7
599617942132540288,12
599617942140225792,16
599617942147911168,21
599617942155596672,31
599617942163282048,33
599617942170967552,38
599617942178652928,48
599617942186338432,53
599617942194023936,58
599617942201709312,67
599617942209394816,77
599617942217080192,82
599617942224765696,82
599617942232451072,84
599617942240136576,84
599617942247822080,84
599617942255507456,82
599617942263192960,72
599617942270878336,48
599617942278563840,26
599617942286249344,7
599617942293934720,-12
599617942301620224,-24
599617942309305600,-29
599617942316991104,-36
599617942324676480,-38
599617942332361984,-33
599617942340047488,-33
599617942347732864,-33
599617942355418368,-29
599617942363103744,-29
599617942370789248,-26
599617942378474600,-24
599617942386160128,-21
599617942393845632,-19
599617942401531008,-14
599617942409216512,-12
599617942416901888,-12
599617942424587392,-9
599617942432272768,-4
599617942439958272,-4
599617942447643776,-4
599617942455329152,0
599617942463014656,2
599617942470700032,2
599617942478385536,2
599617942486070912,2
599617942493756416,2
599617942501441920,2
599617942509127296,0
599617942516812800,2
599617942524498176,2
599617942532183680,0
599617942539869184,0
599617942547554560,-2
599617942555240064,-7
599617942562925440,-12
599617942570610944,-14
599617942578296320,-19
599617942585981824,-21
599617942593667328,-21
599617942601352704,-14
599617942609038208,-12
599617942616723584,-16
599617942624409088,-21
599617942632094464,-16
599617942639779968,-14
599617942647465472,-14
599617942655150848,-12
599617942662836352,-9
599617942670521728,-9
599617942678207232,-9
599617942685892608,-7
599617942693578112,0
599617942701263616,2
599617942708948992,-2
599617942716634496,0
599617942724319872,2
599617942732005376,0
599617942739690752,-2
599617942747376256,0
599617942755061760,2
599617942762747136,2
599617942770432640,0
599617942778118016,0
599617942785803520,4
599617942793489024,4
599617942801174400,2
599617942808859904,0
599617942816545280,-4
599617942824230784,-12
599617942831916160,0
599617942839601664,33
599617942847287168,53
599617942854972544,45
599617942862658048,26
599617942870343424,14
599617942878028928,-2
599617942885714304,-12
599617942893399808,-4
599617942901085312,0
599617942908770688,-2
599617942916456192,-2
599617942924141568,-4
599617942931827072,-4
599617942939512429,-7
599617942947198336,-43
599617942954884224,-157
599617942962570112,-227
599617942970256000,29
599617942977941760,613
599617942985627648,995
599617942993313536,657
599617943000999424,-31
599617943008685312,-277
599617943016371200,-145
599617943024056960,-84
599617943031742848,-58
599617943039428736,-24
599617943047114624,-45
599617943054800512,-50
599617943062486400,-24
599617943070172160,-21
599617943077858048,-24
599617943085543936,-14
599617943093229824,-7
599617943100915712,-4
599617943108601600,0
599617943116287488,4
599617943123973248,4
599617943131659136,7
599617943139345024,14
599617943147030912,19
599617943154716800,26
599617943162402688,33
599617943170088448,38
599617943177774336,48
599617943185460224,53
599617943193146112,55
599617943200832000,60
599617943208517888,65
599617943216203648,67
599617943223889536,67
599617943231575424,65
599617943239261312,62
599617943246947200,58
599617943254633088,43
599617943262318976,21
599617943270004736,2
599617943277690624,-14
599617943285376512,-33
599617943293062400,-45
599617943300748288,-50
599617943308434176,-53
599617943316119936,-55
599617943323805824,-55
599617943331491712,-53
599617943339177600,-48
599617943346863488,-43
599617943354549376,-41
599617943362235136,-38
599617943369921024,-38
599617943377606912,-36
599617943385292800,-33
599617943392978688,-33
599617943400664576,-29
599617943408350336,-24
599617943416036224,-21
599617943423722112,-19
599617943431408000,-16
599617943439093888,-14
599617943446779776,-12
599617943454465664,-14
599617943462151424,-16
599617943469837312,-16
599617943477523200,-14
599617943485209088,-16
599617943492894976,-16
599617943500580772,-16
599617943508266240,-14
599617943515951744,-14
599617943523637120,-19
599617943531322624,-21
599617943539008000,-19
599617943546693504,-19
599617943554378880,-19
599617943562064384,-16
599617943569749888,-16
599617943577435264,-19
599617943585120768,-19
599617943592806144,-14
599617943600491648,-16
599617943608177024,-16
599617943615862528,-14
599617943623548032,-14
599617943631233408,-14
599617943638918912,-14
599617943646604288,-14
599617943654289792,-12
599617943661975296,-9
599617943669660672,-12
599617943677346176,-12
599617943685031552,-12
599617943692717056,-9
599617943700402432,-9
599617943708087936,-9
599617943715773440,-9
599617943723458816,-7
599617943731144320,-9
599617943738829696,-9
599617943746515200,-7
599617943754200576,-7
599617943761886080,-14
599617943769571584,-16
599617943777256960,-9
599617943784942464,-7
599617943792627840,-19
599617943800313344,-24
599617943807998720,4
599617943815684224,41
599617943823369728,48
599617943831055104,33
599617943838740608,16
599617943846425984,-4
599617943854111488,-21
599617943861796864,-14
599617943869482368,-12
599617943877167872,-21
599617943884853248,-19
599617943892538752,-14
599617943900224128,-14
599617943907909632,-7
599617943915595008,-21
599617943923280512,-116
599617943930966016,-248
599617943938651392,-147
599617943946336896,364
599617943954022272,957
599617943961707776,964
599617943969393280,294
599617943977078656,-234
599617943984764160,-207
599617943992449536,-77
599617944000135040,-55
599617944007820416,-43
599617944015505920,-50
599617944023191424,-58
599617944030876800,-43
599617944038562304,-33
599617944046247680,-33
599617944053933184,-24
599617944061618597,-19
599617944069304064,-19
599617944076989568,-7
599617944084674944,0
599617944092360448,0
599617944100045824,4
599617944107731328,12
599617944115416704,16
599617944123102208,19
599617944130787712,24
599617944138473088,29
599617944146158592,33
599617944153843968,38
599617944161529472,43
599617944169214848,43
599617944176900352,43
599617944184585856,48
599617944192271232,50
599617944199956736,53
599617944207642112,55
599617944215327616,53
599617944223013120,45
599617944230698496,38
599617944238384000,26
599617944246069376,7
599617944253754880,-4
599617944261440256,-12
599617944269125760,-24
599617944276811264,-29
599617944284496640,-31
599617944292182144,-36
599617944299867520,-36
599617944307553024,-31
599617944315238400,-26
599617944322923904,-24
599617944330609408,-24
599617944338294784,-24
599617944345980288,-19
599617944353665664,-14
599617944361351168,-12
599617944369036544,-9
599617944376722048,-4
599617944384407552,-7
599617944392092928,-7
599617944399778432,0
599617944407463808,2
599617944415149312,-2
599617944422834688,-2
599617944430520192,0
599617944438205696,0
599617944445891072,-2
599617944453576576,0
599617944461261952,0
599617944468947456,0
599617944476632832,0
599617944484318336,-2
599617944492003840,-2
599617944499689216,-2
599617944507374720,0
599617944515060096,2
599617944522745600,-2
599617944530431104,-4
599617944538116480,0
599617944545801984,2
599617944553487360,0
599617944561172864,0
599617944568858240,0
599617944576543744,0
599617944584229248,0
599617944591914624,0
599617944599600128,2
599617944607285504,4
599617944614971008,4
599617944622656422,4
599617944630341888,2
599617944638027392,2
599617944645712768,4
599617944653398272,9
599617944661083648,7
599617944668769152,4
599617944676454528,7
599617944684140032,7
599617944691825536,7
599617944699510912,7
599617944707196416,7
599617944714881792,9
599617944722567296,9
599617944730252672,7
599617944737938176,4
599617944745623680,2
599617944753309056,2
599617944760994560,-4
599617944768679936,-12
599617944776365440,14
599617944784050944,53
599617944791736320,65
599617944799421824,53
599617944807107200,38
599617944814792704,14
599617944822478080,-7
599617944830163584,-2
599617944837849088,7
599617944845534464,4
599617944853219968,4
599617944860905344,12
599617944868590848,12
599617944876276224,9
599617944883961728,-4
599617944891647232,-94
599617944899332608,-234
599617944907018112,-147
599617944914703488,372
599617944922388992,1010
599617944930074368,1080
599617944937759872,403
599617944945445376,-205
599617944953130752,-212
599617944960816256,-60
599617944968501632,-31
599617944976187136,-29
599617944983872512,-38
599617944991558016,-43
599617944999243520,-29
599617945006928896,-21
599617945014614400,-19
599617945022299776,-12
599617945029985280,-4
599617945037670656,0
599617945045356160,2
599617945053041664,9
599617945060727040,16
599617945068412544,19
599617945076097920,24
599617945083783424,29
599617945091468928,33
599617945099154304,36
599617945106839808,41
599617945114525184,48
599617945122210688,50
599617945129896064,55
599617945137581568,60
599617945145267072,62
599617945152952448,70
599617945160637952,72
599617945168323328,72
599617945176008832,70
599617945183694247,67
599617945191380096,62
599617945199065984,50
599617945206751872,31
599617945214437760,12
599617945222123520,0
599617945229809408,-12
599617945237495296,-21
599617945245181184,-26
599617945252867072,-29
599617945260552960,-31
599617945268238720,-26
599617945275924608,-21
599617945283610496,-24
599617945291296384,-19
599617945298982272,-12
599617945306668160,-12
599617945314353920,-9
599617945322039808,-9
599617945329725696,-7
599617945337411584,-4
599617945345097472,-2
599617945352783360,0
599617945360469248,2
599617945368155008,4
599617945375840896,7
599617945383526784,7
599617945391212672,4
599617945398898560,4
599617945406584448,7
599617945414270208,7
599617945421956096,7
599617945429641984,7
599617945437327872,7
599617945445013760,7
599617945452699648,7
599617945460385408,12
599617945468071296,9
599617945475757184,7
599617945483443072,9
599617945491128960,12
599617945498814848,9
599617945506500736,9
599617945514186496,12
599617945521872384,12
599617945529558272,12
599617945537244160,14
599617945544930048,12
599617945552615936,12
599617945560301696,12
599617945567987584,14
599617945575673472,16
599617945583359360,19
599617945591045248,21
599617945598731136,21
599617945606416896,21
599617945614102784,19
599617945621788672,19
599617945629474560,19
599617945637160448,21
599617945644846336,19
599617945652532096,19
599617945660217984,19
599617945667903872,21
599617945675589760,19
599617945683275648,16
599617945690961536,12
599617945698647424,2
599617945706333184,9
599617945714019072,50
599617945721704960,84
599617945729390848,79
599617945737076736,60
599617945744762590,38
599617945752448128,14
599617945760133632,4
599617945767819008,14
599617945775504512,14
599617945783189888,12
599617945790875392,12
599617945798560768,14
599617945806246272,12
599617945813931776,9
599617945821617152,-43
599617945829302656,-188
599617945836988032,-222
599617945844673536,152
599617945852358912,826
599617945860044416,1172
599617945867729920,693
599617945875415296,-82
599617945883100800,-309
599617945890786176,-142
599617945898471680,-38
599617945906157184,-9
599617945913842560,-26
599617945921528064,-45
599617945929213440,-26
599617945936898944,-9
599617945944584320,-12
599617945952269824,-7
599617945959955328,2
599617945967640704,7
599617945975326208,14
599617945983011584,19
599617945990697088,24
599617945998382464,31
599617946006067968,36
599617946013753472,41
599617946021438848,48
599617946029124352,53
599617946036809728,58
599617946044495232,65
599617946052180608,70
599617946059866112,72
599617946067551616,77
599617946075236992,84
599617946082922496,91
599617946090607872,94
599617946098293376,94
599617946105978752,91
599617946113664256,84
599617946121349760,74
599617946129035136,62
599617946136720640,41
599617946144406016,16
599617946152091520,0
599617946159777024,-7
599617946167462400,-14
599617946175147904,-19
599617946182833280,-24
599617946190518784,-24
599617946198204160,-21
599617946205889664,-19
599617946213575168,-16
599617946221260544,-14
599617946228946048,-9
599617946236631424,-7
599617946244316928,-4
599617946252002304,-2
599617946259687808,2
599617946267373312,4
599617946275058688,9
599617946282744192,12
599617946290429568,14
599617946298115072,16
599617946305800419,19
599617946313485952,21
599617946321171456,21
599617946328856832,19
599617946336542336,21
599617946344227712,21
599617946351913216,19
599617946359598592,19
599617946367284096,19
599617946374969600,16
599617946382654976,16
599617946390340480,19
599617946398025856,19
599617946405711360,19
599617946413396736,16
599617946421082240,16
599617946428767744,14
599617946436453120,14
599617946444138624,16
599617946451824000,14
599617946459509504,12
599617946467195008,14
599617946474880384,14
599617946482565888,14
599617946490251264,16
599617946497936768,19
599617946505622144,16
599617946513307648,16
599617946520993152,19
599617946528678528,16
599617946536364032,16
599617946544049408,19
599617946551734912,21
599617946559420288,21
599617946567105792,16
599617946574791296,14
599617946582476672,9
599617946590162176,0
599617946597847552,-4
599617946605533056,21
599617946613218432,65
599617946620903936,84
599617946628589440,72
599617946636274816,53
599617946643960320,24
599617946651645696,4
599617946659331200,16
599617946667016576,21
599617946674702080,14
599617946682387584,16
599617946690072960,21
599617946697758464,19
599617946705443840,16
599617946713129344,4
599617946720814720,-89
599617946728500224,-232
599617946736185728,-130
599617946743871104,420
599617946751556608,1063
599617946759241984,1080
599617946766927488,345
599617946774612992,-270
599617946782298368,-277
599617946789983872,-103
599617946797669248,-19
599617946805354752,2
599617946813040128,-31
599617946820725632,-36
599617946828411136,-9
599617946836096512,-2
599617946843782016,-4
599617946851467392,4
599617946859152896,14
599617946866838244,14
599617946874523776,19
599617946882209280,26
599617946889894656,31
599617946897580160,36
599617946905265536,43
599617946912951040,48
599617946920636416,53
599617946928321920,60
599617946936007424,67
599617946943692800,72
599617946951378304,77
599617946959063680,82
599617946966749184,87
599617946974434560,91
599617946982120064,96
599617946989805568,96
599617946997490944,96
599617947005176448,94
599617947012861824,87
599617947020547328,72
599617947028232832,53
599617947035918208,29
599617947043603712,2
599617947051289088,-12
599617947058974592,-24
599617947066659968,-33
599617947074345472,-38
599617947082030976,-38
599617947089716352,-38
599617947097401856,-41
599617947105087232,-41
599617947112772736,-38
599617947120458112,-36
599617947128143616,-36
599617947135829120,-29
599617947143514496,-26
599617947151200000,-24
599617947158885376,-19
599617947166570880,-12
599617947174256256,-7
599617947181941760,-4
599617947189627264,0
599617947197312640,2
599617947204998144,0
599617947212683520,-2
599617947220369024,0
599617947228054400,0
599617947235739904,-4
599617947243425408,-4
599617947251110784,-4
599617947258796288,-2
599617947266481664,-4
599617947274167168,-4
599617947281852544,-4
599617947289538048,-7
599617947297223552,-9
599617947304908928,-9
599617947312594432,-12
599617947320279808,-9
599617947327965312,-12
599617947335650816,-14
599617947343336192,-9
599617947351021696,-7
599617947358707072,-12
599617947366392576,-14
599617947374077952,-12
599617947381763456,-14
599617947389448960,-14
599617947397134336,-14
599617947404819840,-14
599617947412505216,-16
599617947420190720,-16
599617947427876069,-21
599617947435561600,-24
599617947443247104,-29
599617947450932480,-38
599617947458617984,-16
599617947466303360,26
599617947473988864,45
599617947481674240,33
599617947489359744,19
599617947497045248,-2
599617947504730624,-26
599617947512416128,-29
599617947520101504,-19
599617947527787008,-21
599617947535472384,-24
599617947543157888,-24
599617947550843392,-26
599617947558528768,-24
599617947566214272,-29
599617947573899648,-99
599617947581585152,-244
599617947589270656,-217
599617947596956032,241
599617947604641536,901
599617947612326912,1053
599617947620012416,379
599617947627697792,-333
599617947635383296,-391
599617947643068800,-219
599617947650754176,-142
599617947658439680,-31
599617947666125056,-7
599617947673810560,-70
599617947681495936,-50
599617947689181440,-16
599617947696866944,-29
599617947704552320,-26
599617947712237824,-9
599617947719923200,-7
599617947727608704,-4
599617947735294080,2
599617947742979584,4
599617947750665088,12
599617947758350464,21
599617947766035968,26
599617947773721344,33
599617947781406848,43
599617947789092224,50
599617947796777728,58
599617947804463232,65
599617947812148608,74
599617947819834112,82
599617947827519488,91
599617947835204992,99
599617947842890368,101
599617947850575872,103
599617947858261376,101
599617947865946752,91
599617947873632256,77
599617947881317632,48
599617947889003136,9
599617947896688640,-24
599617947904374016,-50
599617947912059520,-65
599617947919744896,-79
599617947927430400,-89
599617947935115776,-94
599617947942801280,-94
599617947950486784,-91
599617947958172160,-89
599617947965857664,-84
599617947973543040,-82
599617947981228544,-82
599617947988913894,-77
599617947996599808,-70
599617948004285696,-65
599617948011971584,-58
599617948019657472,-58
599617948027343232,-58
599617948035029120,-53
599617948042715008,-48
599617948050400896,-48
599617948058086784,-48
599617948065772672,-43
599617948073458432,-41
599617948081144320,-43
599617948088830208,-45
599617948096516096,-43
599617948104201984,-41
599617948111887872,-41
599617948119573632,-41
599617948127259520,-41
599617948134945408,-38
599617948142631296,-41
599617948150317184,-41
599617948158003072,-38
599617948165688960,-38
599617948173374720,-38
599617948181060608,-38
599617948188746496,-36
599617948196432384,-41
599617948204118272,-41
599617948211804160,-9
599617948219489920,29
599617948227175808,31
599617948234861696,21
599617948242547584,2
599617948250233472,-21
599617948257919360,-31
599617948265605120,-29
599617948273291008,-29
599617948280976896,-29
599617948288662784,-29
599617948296348672,-31
599617948304034560,-33
599617948311720448,-33
599617948319406208,-38
599617948327092096,-96
599617948334777984,-229
599617948342463872,-232
599617948350149760,171
599617948357835648,780
599617948365521408,920
599617948373207296,285
599617948380893184,-372
599617948388579072,-393
599617948396264960,-239
599617948403950848,-193
599617948411636608,-48
599617948419322496,29
599617948427008384,-43
599617948434694272,-43
599617948442380160,2
599617948450066048,-7
599617948457751808,-12
599617948465437696,7
599617948473123584,7
599617948480809472,4
599617948488495360,19
599617948496181248,29
599617948503867136,29
599617948511552896,36
599617948519238784,45
599617948526924672,53
599617948534610560,62
599617948542296448,65
599617948549982237,72
599617948557667712,87
599617948565353216,96
599617948573038592,101
599617948580724096,108
599617948588409472,120
599617948596094976,125
599617948603780352,128
599617948611465856,125
599617948619151360,113
599617948626836736,82
599617948634522240,41
599617948642207616,-4
599617948649893120,-41
599617948657578496,-65
599617948665264000,-79
599617948672949504,-89
599617948680634880,-96
599617948688320384,-103
599617948696005760,-101
599617948703691264,-94
599617948711376768,-89
599617948719062144,-91
599617948726747648,-94
599617948734433024,-91
599617948742118528,-91
599617948749803904,-89
599617948757489408,-87
599617948765174912,-79
599617948772860288,-70
599617948780545792,-65
599617948788231168,-62
599617948795916672,-53
599617948803602048,-41
599617948811287552,-38
599617948818973056,-41
599617948826658432,-41
599617948834343936,-36
599617948842029312,-31
599617948849714816,-31
599617948857400192,-33
599617948865085696,-31
599617948872771200,-24
599617948880456576,-24
599617948888142080,-26
599617948895827456,-26
599617948903512960,-29
599617948911198336,-38
599617948918883840,-38
599617948926569344,-2
599617948934254720,38
599617948941940224,36
599617948949625600,24
599617948957311104,12
599617948964996480,-16
599617948972681984,-33
599617948980367488,-26
599617948988052864,-29
599617948995738368,-31
599617949003423744,-26
599617949011109248,-24
599617949018794752,-29
599617949026480128,-26
599617949034165632,-24
599617949041851008,-70
599617949049536512,-193
599617949057221888,-229
599617949064907392,89
599617949072592896,667
599617949080278272,887
599617949087963776,355
599617949095649152,-304
599617949103334656,-391
599617949111020062,-241
599617949118705536,-195
599617949126391040,-70
599617949134076416,16
599617949141761920,-38
599617949149447296,-48
599617949157132800,-7
599617949164818176,-14
599617949172503680,-21
599617949180189184,4
599617949187874560,29
599617949195560064,26
599617949203245440,7
599617949210930944,2
599617949218616320,12
599617949226301824,12
599617949233987328,14
599617949241672704,21
599617949249358208,33
599617949257043584,50
599617949264729088,53
599617949272414592,60
599617949280099968,87
599617949287785472,108
599617949295470848,120
599617949303156352,132
599617949310841728,137
599617949318527232,132
599617949326212736,125
599617949333898112,116
599617949341583616,91
599617949349268992,53
599617949356954496,14
599617949364639872,-16
599617949372325376,-43
599617949380010880,-58
599617949387696256,-65
599617949395381760,-72
599617949403067136,-77
599617949410752640,-77
599617949418438016,-70
599617949426123520,-65
599617949433809024,-55
599617949441494400,-43
599617949449179904,-45
599617949456865280,-50
599617949464550784,-48
599617949472236160,-45
599617949479921664,-48
599617949487607168,-43
599617949495292544,-41
599617949502978048,-43
599617949510663424,-38
599617949518348928,-36
599617949526034432,-43
599617949533719808,-43
599617949541405312,-36
599617949549090688,-36
599617949556776192,-36
599617949564461568,-33
599617949572147072,-29
599617949579832576,-29
599617949587517952,-33
599617949595203456,-33
599617949602888832,-33
599617949610574336,-33
599617949618259712,-26
599617949625945216,0
599617949633630720,21
599617949641316096,12
599617949649001600,-9
599617949656686976,-21
599617949664372480,-48
599617949672057891,-67
599617949679743360,-62
599617949687428864,-55
599617949695114240,-53
599617949702799744,-50
599617949710485120,-50
599617949718170624,-55
599617949725856000,-53
599617949733541504,-43
599617949741227008,-72
599617949748912384,-183
599617949756597888,-246
599617949764283264,9
599617949771968768,555
599617949779654144,845
599617949787339648,432
599617949795025152,-203
599617949802710528,-343
599617949810396032,-200
599617949818081408,-145
599617949825766912,-55
599617949833452416,12
599617949841137792,-31
599617949848823296,-41
599617949856508672,0
599617949864194176,2
599617949871879552,2
599617949879565056,21
599617949887250560,29
599617949894935936,26
599617949902621440,31
599617949910306816,36
599617949917992320,38
599617949925677696,38
599617949933363200,43
599617949941048704,48
599617949948734080,53
599617949956419584,60
599617949964104960,67
599617949971790464,79
599617949979475840,91
599617949987161344,101
599617949994846848,111
599617950002532224,118
599617950010217728,116
599617950017903104,111
599617950025588608,103
599617950033273984,91
599617950040959488,74
599617950048644992,43
599617950056330368,7
599617950064015872,-21
599617950071701248,-36
599617950079386752,-45
599617950087072128,-55
599617950094757632,-58
599617950102443136,-60
599617950110128512,-60
599617950117814016,-53
599617950125499392,-50
599617950133184896,-53
599617950140870400,-48
599617950148555776,-48
599617950156241280,-45
599617950163926656,-38
599617950171612160,-41
599617950179297536,-41
599617950186983040,-26
599617950194668544,-21
599617950202353920,-26
599617950210039424,-26
599617950217724800,-24
599617950225410304,-21
599617950233095716,-12
599617950240781568,-4
599617950248467456,-7
599617950256153344,-7
599617950263839232,-2
599617950271524992,2
599617950279210880,2
599617950286896768,4
599617950294582656,4
599617950302268544,4
599617950309954432,2
599617950317640192,-2
599617950325326080,7
599617950333011968,38
599617950340697856,53
599617950348383744,43
599617950356069632,36
599617950363755392,19
599617950371441280,-12
599617950379127168,-16
599617950386813056,-7
599617950394498944,-12
599617950402184832,-14
599617950409870720,-12
599617950417556480,-9
599617950425242368,-7
599617950432928256,0
599617950440614144,-4
599617950448300032,-58
599617950455985920,-171
599617950463671680,-176
599617950471357568,164
599617950479043456,693
599617950486729344,807
599617950494415232,277
599617950502101120,-241
599617950509786880,-251
599617950517472768,-123
599617950525158656,-84
599617950532844544,-14
599617950540530432,-2
599617950548216320,-50
599617950555902208,-31
599617950563587968,-4
599617950571273856,-19
599617950578959744,-12
599617950586645632,9
599617950594331520,7
599617950602017408,2
599617950609703168,12
599617950617389056,26
599617950625074944,31
599617950632760832,33
599617950640446720,41
599617950648132608,50
599617950655818368,55
599617950663504256,62
599617950671190144,74
599617950678876032,79
599617950686561920,79
599617950694247808,91
599617950701933568,96
599617950709619456,94
599617950717305344,94
599617950724991232,94
599617950732677120,89
599617950740363008,74
599617950748048896,50
599617950755734656,19
599617950763420544,-9
599617950771106432,-21
599617950778792320,-26
599617950786478208,-38
599617950794164059,-45
599617950801849600,-48
599617950809535104,-50
599617950817220480,-45
599617950824905984,-38
599617950832591360,-33
599617950840276864,-33
599617950847962240,-33
599617950855647744,-26
599617950863333248,-21
599617950871018624,-21
599617950878704128,-14
599617950886389504,-4
599617950894075008,-9
599617950901760384,-14
599617950909445888,-7
599617950917131392,-4
599617950924816768,-9
599617950932502272,-4
599617950940187648,0
599617950947873152,-9
599617950955558656,-14
599617950963244032,-9
599617950970929536,-9
599617950978614912,-12
599617950986300416,-14
599617950993985792,-19
599617951001671296,-21
599617951009356800,-19
599617951017042176,-16
599617951024727680,-16
599617951032413056,-19
599617951040098560,-21
599617951047783936,-21
599617951055469440,-12
599617951063154944,7
599617951070840320,26
599617951078525824,24
599617951086211200,21
599617951093896704,31
599617951101582080,26
599617951109267584,24
599617951116953088,55
599617951124638464,79
599617951132323968,67
599617951140009344,60
599617951147694848,55
599617951155380224,29
599617951163065728,4
599617951170751232,9
599617951178436608,14
599617951186122112,7
599617951193807488,7
599617951201492992,9
599617951209178368,9
599617951216863872,4
599617951224549376,2
599617951232234752,-21
599617951239920256,-111
599617951247605632,-176
599617951255291136,16
599617951262976640,490
599617951270662016,800
599617951278347520,512
599617951286032896,-58
599617951293718400,-239
599617951301403776,-111
599617951309089280,-53
599617951316774784,-14
599617951324460160,24
599617951332145664,2
599617951339831040,-4
599617951347516544,12
599617951355201884,14
599617951362887424,9
599617951370572928,14
599617951378258304,12
599617951385943808,9
599617951393629184,16
599617951401314688,26
599617951409000064,36
599617951416685568,41
599617951424371072,38
599617951432056448,41
599617951439741952,50
599617951447427328,55
599617951455112832,58
599617951462798208,70
599617951470483712,77
599617951478169216,79
599617951485854592,87
599617951493540096,94
599617951501225472,94
599617951508910976,91
599617951516596480,87
599617951524281856,79
599617951531967360,70
599617951539652736,53
599617951547338240,29
599617951555023616,2
599617951562709120,-14
599617951570394624,-21
599617951578080000,-31
599617951585765504,-43
599617951593450880,-45
599617951601136384,-38
599617951608821760,-33
599617951616507264,-29
599617951624192768,-19
599617951631878144,-16
599617951639563648,-16
599617951647249024,-16
599617951654934528,-14
599617951662619904,-12
599617951670305408,-7
599617951677990912,-4
599617951685676288,-7
599617951693361792,-4
599617951701047168,0
599617951708732672,2
599617951716418048,0
599617951724103552,2
599617951731789056,7
599617951739474432,9
599617951747159936,4
599617951754845312,4
599617951762530816,7
599617951770216192,4
599617951777901696,4
599617951785587200,7
599617951793272576,7
599617951800958080,4
599617951808643456,7
599617951816328960,12
599617951824014464,9
599617951831699840,7
599617951839385344,4
599617951847070720,4
599617951854756224,2
599617951862441600,-2
599617951870127104,-7
599617951877812608,-4
599617951885497984,-7
599617951893183488,-9
599617951900868864,-12
599617951908554368,-7
599617951916239709,-2
599617951923925248,-7
599617951931610752,-9
599617951939296128,0
599617951946981632,2
599617951954667008,-4
599617951962352512,-4
599617951970037888,7
599617951977723392,7
599617951985408896,-2
599617951993094272,2
599617952000779776,7
599617952008465152,0
599617952016150656,2
599617952023836032,9
599617952031521536,14
599617952039207040,12
599617952046892416,7
599617952054577920,7
599617952062263296,9
599617952069948800,12
599617952077634304,12
599617952085319680,12
599617952093005184,12
599617952100690560,9
599617952108376064,14
599617952116061440,14
599617952123746944,7
599617952131432448,4
599617952139117824,9
599617952146803328,9
599617952154488704,7
599617952162174208,26
599617952169859584,55
599617952177545088,60
599617952185230592,53
599617952192915968,50
599617952200601472,36
599617952208286848,14
599617952215972352,14
599617952223657728,21
599617952231343232,19
599617952239028736,24
599617952246714112,26
599617952254399616,24
599617952262084992,24
599617952269770496,24
599617952277455872,-12
599617952285141376,-111
599617952292826880,-164
599617952300512256,38
599617952308197760,488
599617952315883136,756
599617952323568640,456
599617952331254016,-74
599617952338939520,-222
599617952346625024,-96
599617952354310400,-50
599617952361995904,-24
599617952369681280,19
599617952377366784,9
599617952385052288,-2
599617952392737664,16
599617952400423168,24
599617952408108544,16
599617952415794048,26
599617952423479424,33
599617952431164928,33
599617952438850432,33
599617952446535808,38
599617952454221312,41
599617952461906688,43
599617952469592192,45
599617952477277534,48
599617952484963456,53
599617952492649344,62
599617952500335232,72
599617952508021120,74
599617952515706880,72
599617952523392768,77
599617952531078656,84
599617952538764544,74
599617952546450432,72
599617952554136320,82
599617952561822080,74
599617952569507968,67
599617952577193856,67
599617952584879744,53
599617952592565632,29
599617952600251520,9
599617952607937280,0
599617952615623168,-7
599617952623309056,-16
599617952630994944,-19
599617952638680832,-24
599617952646366720,-33
599617952654052608,-33
599617952661738368,-31
599617952669424256,-29
599617952677110144,-21
599617952684796032,-19
599617952692481920,-19
599617952700167808,-14
599617952707853568,-9
599617952715539456,-9
599617952723225344,-12
599617952730911232,-7
599617952738597120,2
599617952746283008,7
599617952753968768,7
599617952761654656,9
599617952769340544,16
599617952777026432,12
599617952784712320,4
599617952792398208,12
599617952800084096,16
599617952807769856,9
599617952815455744,9
599617952823141632,9
599617952830827520,4
599617952838513408,7
599617952846199296,12
599617952853885056,12
599617952861570944,12
599617952869256832,12
599617952876942720,12
599617952884628608,9
599617952892314496,9
599617952900000256,9
599617952907686144,9
599617952915372032,4
599617952923057920,4
599617952930743808,12
599617952938429696,7
599617952946115584,0
599617952953801344,4
599617952961487232,7
599617952969173120,4
599617952976859008,7
599617952984544896,9
599617952992230784,9
599617952999916544,7
599617953007602432,0
599617953015288320,2
599617953022974208,9
599617953030660096,14
599617953038345881,14
599617953046031360,4
599617953053716864,7
599617953061402240,12
599617953069087744,9
599617953076773120,12
599617953084458624,9
599617953092144000,4
599617953099829504,7
599617953107515008,9
599617953115200384,9
599617953122885888,7
599617953130571264,4
599617953138256768,7
599617953145942144,12
599617953153627648,36
599617953161313152,58
599617953168998528,55
599617953176684032,38
599617953184369408,21
599617953192054912,14
599617953199740416,7
599617953207425792,4
599617953215111296,9
599617953222796672,12
599617953230482176,12
599617953238167552,9
599617953245853056,9
599617953253538560,16
599617953261223936,14
599617953268909440,-36
599617953276594816,-123
599617953284280320,-108
599617953291965696,176
599617953299651200,589
599617953307336704,652
599617953315022080,219
599617953322707584,-174
599617953330392960,-159
599617953338078464,-53
599617953345763840,-33
599617953353449344,9
599617953361134848,29
599617953368820224,7
599617953376505728,12
599617953384191104,26
599617953391876608,21
599617953399561984,26
599617953407247488,38
599617953414932992,36
599617953422618368,36
599617953430303872,48
599617953437989248,60
599617953445674752,55
599617953453360128,53
599617953461045632,55
599617953468731136,60
599617953476416512,65
599617953484102016,72
599617953491787392,77
599617953499472896,82
599617953507158400,82
599617953514843776,79
599617953522529280,84
599617953530214656,87
599617953537900160,87
599617953545585536,87
599617953553271040,84
599617953560956544,77
599617953568641920,65
599617953576327424,45
599617953584012800,24
599617953591698304,12
599617953599383706,0
599617953607069184,-12
599617953614754688,-16
599617953622440064,-21
599617953630125568,-24
599617953637810944,-19
599617953645496448,-14
599617953653181824,-19
599617953660867328,-19
599617953668552832,-14
599617953676238208,-14
599617953683923712,-14
599617953691609088,-9
599617953699294592,-4
599617953706979968,-7
599617953714665472,-9
599617953722350976,-7
599617953730036352,2
599617953737721856,2
599617953745407232,0
599617953753092736,7
599617953760778240,9
599617953768463616,7
599617953776149120,7
599617953783834496,7
599617953791520000,7
599617953799205376,9
599617953806890880,9
599617953814576384,12
599617953822261760,16
599617953829947264,9
599617953837632640,2
599617953845318144,7
599617953853003520,7
599617953860689024,2
599617953868374528,4
599617953876059904,4
599617953883745408,2
599617953891430784,4
599617953899116288,7
599617953906801664,7
599617953914487168,9
599617953922172672,7
599617953929858048,2
599617953937543552,7
599617953945228928,12
599617953952914432,12
599617953960599808,12
599617953968285312,4
599617953975970816,4
599617953983656192,14
599617953991341696,12
599617953999027072,7
599617954006712576,12
599617954014397952,14
599617954022083456,12
599617954029768960,12
599617954037454336,12
599617954045139840,7
599617954052825216,12
599617954060510720,14
599617954068196224,14
599617954075881600,14
599617954083567104,14
599617954091252480,14
599617954098937984,14
599617954106623360,16
599617954114308864,14
599617954121994368,19
599617954129679744,24
599617954137365248,12
599617954145050624,14
599617954152736128,45
599617954160421531,62
599617954168107392,55
599617954175793280,48
599617954183479168,41
599617954191165056,21
599617954198850816,4
599617954206536704,14
599617954214222592,21
599617954221908480,12
599617954229594368,14
599617954237280256,19
599617954244966016,16
599617954252651904,19
599617954260337792,14
599617954268023680,-29
599617954275709568,-118
599617954283395456,-106
599617954291081216,183
599617954298767104,589
599617954306452992,628
599617954314138880,193
599617954321824768,-176
599617954329510656,-159
599617954337196544,-60
599617954344882304,-36
599617954352568192,14
599617954360254080,29
599617954367939968,2
599617954375625856,16
599617954383311744,33
599617954390997504,24
599617954398683392,26
599617954406369280,36
599617954414055168,41
599617954421741056,41
599617954429426944,45
599617954437112704,53
599617954444798592,48
599617954452484480,50
599617954460170368,58
599617954467856256,58
599617954475542144,62
599617954483228032,70
599617954490913792,74
599617954498599680,77
599617954506285568,79
599617954513971456,87
599617954521657344,94
599617954529343232,94
599617954537028992,91
599617954544714880,96
599617954552400768,96
599617954560086656,84
599617954567772544,67
599617954575458432,53
599617954583144192,31
599617954590830080,9
599617954598515968,-2
599617954606201856,-9
599617954613887744,-21
599617954621573632,-29
599617954629259392,-24
599617954636945280,-19
599617954644631168,-26
599617954652317056,-29
599617954660002944,-19
599617954667688832,-9
599617954675374720,-12
599617954683060480,-16
599617954690746368,-12
599617954698432256,-4
599617954706118144,-2
599617954713804032,0
599617954721489874,2
599617954729175424,4
599617954736860928,4
599617954744546304,4
599617954752231808,7
599617954759917184,7
599617954767602688,7
599617954775288064,7
599617954782973568,9
599617954790659072,12
599617954798344448,14
599617954806029952,9
599617954813715328,7
599617954821400832,9
599617954829086208,12
599617954836771712,12
599617954844457216,7
599617954852142592,9
599617954859828096,16
599617954867513472,16
599617954875198976,12
599617954882884480,14
599617954890569856,14
599617954898255360,14
599617954905940736,14
599617954913626240,9
599617954921311616,12
599617954928997120,16
599617954936682624,16
599617954944368000,14
599617954952053504,14
599617954959738880,12
599617954967424384,12
599617954975109760,12
599617954982795264,12
599617954990480768,16
599617954998166144,19
599617955005851648,16
599617955013537024,14
599617955021222528,12
599617955028907904,7
599617955036593408,2
599617955044278912,0
599617955051964288,0
599617955059649792,-2
599617955067335168,0
599617955075020672,2
599617955082706048,2
599617955090391552,7
599617955098077056,12
599617955105762432,9
599617955113447936,12
599617955121133312,19
599617955128818816,19
599617955136504192,14
599617955144189696,16
599617955151875200,24
599617955159560576,19
599617955167246080,14
599617955174931456,19
599617955182616960,21
599617955190302464,9
599617955197987840,7
599617955205673344,31
599617955213358720,55
599617955221044224,58
599617955228729600,48
599617955236415104,41
599617955244100608,24
599617955251785984,4
599617955259471488,2
599617955267156864,9
599617955274842368,12
599617955282527699,7
599617955290213632,4
599617955297899520,4
599617955305585408,7
599617955313271296,4
599617955320957056,-33
599617955328642944,-128
599617955336328832,-166
599617955344014720,67
599617955351700608,526
599617955359386496,734
599617955367072256,357
599617955374758144,-154
599617955382444032,-239
599617955390129920,-111
599617955397815808,-72
599617955405501696,-26
599617955413187456,14
599617955420873344,-14
599617955428559232,-21
599617955436245120,9
599617955443931008,12
599617955451616896,4
599617955459302784,12
599617955466988544,21
599617955474674432,21
599617955482360320,26
599617955490046208,36
599617955497732096,43
599617955505417984,50
599617955513103744,55
599617955520789632,58
599617955528475520,62
599617955536161408,67
599617955543847296,70
599617955551533184,74
599617955559218944,79
599617955566904832,82
599617955574590720,87
599617955582276608,94
599617955589962496,96
599617955597648384,89
599617955605334272,84
599617955613020032,84
599617955620705920,74
599617955628391808,55
599617955636077696,38
599617955643763584,19
599617955651449472,-2
599617955659135232,-16
599617955666821120,-19
599617955674507008,-16
599617955682192896,-21
599617955689878784,-19
599617955697564672,-14
599617955705250432,-16
599617955712936320,-16
599617955720622208,-12
599617955728308096,-9
599617955735993984,-7
599617955743679872,-4
599617955751365632,-2
599617955759051520,0
599617955766737408,0
599617955774423296,2
599617955782109184,2
599617955789795072,4
599617955797480960,7
599617955805166720,4
599617955812852608,4
599617955820538496,9
599617955828224384,12
599617955835910272,12
599617955843596042,9
599617955851281536,9
599617955858967040,12
599617955866652416,7
599617955874337920,4
599617955882023296,2
599617955889708800,0
599617955897394176,4
599617955905079680,4
599617955912765184,0
599617955920450560,-4
599617955928136064,-7
599617955935821440,-9
599617955943506944,-9
599617955951192320,-7
599617955958877824,-7
599617955966563328,-7
599617955974248704,-2
599617955981934208,-2
599617955989619584,-4
599617955997305088,-4
599617956004990592,0
599617956012675968,0
599617956020361472,-2
599617956028046848,-7
599617956035732352,-7
599617956043417728,-7
599617956051103232,-2
599617956058788736,-2
599617956066474112,-7
599617956074159616,-4
599617956081844992,0
599617956089530496,2
599617956097215872,9
599617956104901376,19
599617956112586880,19
599617956120272256,4
599617956127957760,0
599617956135643136,4
599617956143328640,7
599617956151014016,4
599617956158699520,2
599617956166385024,4
599617956174070400,7
599617956181755904,4
599617956189441280,7
599617956197126784,4
599617956204812160,-4
599617956212497664,0
599617956220183168,26
599617956227868544,50
599617956235554048,60
599617956243239424,55
599617956250924928,45
599617956258610432,29
599617956266295808,9
599617956273981312,9
599617956281666688,16
599617956289352192,14
599617956297037568,9
599617956304723072,9
599617956312408576,16
599617956320093952,14
599617956327779456,-4
599617956335464832,-79
599617956343150336,-188
599617956350835712,-120
599617956358521216,306
599617956366206720,814
599617956373892096,800
599617956381577600,200
599617956389262976,-239
599617956396948480,-183
599617956404633871,-70
599617956412319744,-50
599617956420005632,-4
599617956427691520,2
599617956435377408,-16
599617956443063168,-4
599617956450749056,7
599617956458434944,2
599617956466120832,7
599617956473806720,12
599617956481492608,7
599617956489178368,12
599617956496864256,19
599617956504550144,19
599617956512236032,21
599617956519921920,29
599617956527607808,31
599617956535293568,38
599617956542979456,45
599617956550665344,50
599617956558351232,50
599617956566037120,55
599617956573723008,60
599617956581408896,65
599617956589094656,74
599617956596780544,77
599617956604466432,77
599617956612152320,77
599617956619838208,74
599617956627524096,70
599617956635209856,60
599617956642895744,45
599617956650581632,21
599617956658267520,-2
599617956665953408,-19
599617956673639296,-31
599617956681325056,-43
599617956689010944,-45
599617956696696832,-45
599617956704382720,-45
599617956712068608,-45
599617956719754496,-45
599617956727440384,-43
599617956735126144,-41
599617956742812032,-38
