599618617114707328,212
599618617122393984,217
599618617130080640,217
599618617137767296,224
599618617145453824,232
599618617153140480,222
599618617160827136,222
599618617168513792,232
599618617176200448,224
599618617183887104,217
599618617191573632,219
599618617199260288,212
599618617206946944,193
599618617214633600,186
599618617222320256,181
599618617230006912,164
599618617237693440,154
599618617245380096,161
599618617253066752,157
599618617260753408,149
599618617268440064,157
599618617276126720,157
599618617283813248,157
599618617291499904,161
599618617299186560,159
599618617306873216,157
599618617314559872,159
599618617322246528,161
599618617329933056,166
599618617337619712,164
599618617345306368,166
599618617352993024,181
599618617360679680,178
599618617368366336,161
599618617376052864,161
599618617383739520,169
599618617391426176,161
599618617399112832,159
599618617406799488,161
599618617414486144,161
599618617422172672,159
599618617429859328,157
599618617437545984,164
599618617445232640,171
599618617452919296,166
599618617460605824,161
599618617468292480,164
599618617475979136,159
599618617483665792,154
599618617491352448,159
599618617499039104,164
599618617506725632,164
599618617514412288,159
599618617522098944,157
599618617529785600,157
599618617537472256,164
599618617545158912,161
599618617552845440,152
599618617560532096,154
599618617568218752,161
599618617575905408,157
599618617583592064,157
599618617591278720,164
599618617598965248,159
599618617606651904,149
599618617614338560,157
599618617622025216,154
599618617629711817,145
599618617637397376,142
599618617645082880,145
599618617652768384,145
599618617660453888,137
599618617668139392,137
599618617675825024,147
599618617683510528,142
599618617691196032,135
599618617698881536,147
599618617706567040,149
599618617714252544,137
599618617721938048,137
599618617729623552,147
599618617737309184,152
599618617744994688,149
599618617752680192,142
599618617760365696,142
599618617768051200,149
599618617775736704,147
599618617783422208,140
599618617791107712,142
599618617798793344,147
599618617806478848,142
599618617814164352,140
599618617821849856,149
599618617829535360,164
599618617837220864,169
599618617844906368,164
599618617852591872,164
599618617860277376,164
599618617867963008,142
599618617875648512,120
599618617883334016,135
599618617891019520,149
599618617898705024,135
599618617906390528,128
599618617914076032,135
599618617921761536,137
599618617929447168,140
599618617937132672,120
599618617944818176,67
599618617952503680,48
599618617960189184,176
599618617967874688,401
599618617975560192,509
599618617983245696,364
599618617990931328,125
599618617998616832,36
599618618006302336,62
599618618013987840,96
599618618021673344,140
599618618029358848,157
599618618037044352,137
599618618044729856,132
599618618052415360,142
599618618060100992,145
599618618067786496,147
599618618075472000,149
599618618083157504,147
599618618090843008,145
599618618098528512,147
599618618106214016,147
599618618113899520,147
599618618121585152,169
599618618129270656,183
599618618136956160,166
599618618144641664,135
599618618152327168,128
599618618160012672,142
599618618167698176,152
599618618175383680,157
599618618183069312,157
599618618190754728,159
599618618198440576,164
599618618206126464,159
599618618213812352,159
599618618221498240,161
599618618229184000,147
599618618236869888,130
599618618244555776,140
599618618252241664,128
599618618259927552,99
599618618267613440,101
599618618275299200,113
599618618282985088,99
599618618290670976,84
599618618298356864,94
599618618306042752,108
599618618313728640,125
599618618321414400,137
599618618329100288,113
599618618336786176,89
599618618344472064,101
599618618352157952,108
599618618359843840,101
599618618367529728,103
599618618375215488,113
599618618382901376,116
599618618390587264,113
599618618398273152,106
599618618405959040,106
599618618413644928,113
599618618421330688,116
599618618429016576,108
599618618436702464,111
599618618444388352,123
599618618452074240,123
599618618459760128,111
599618618467445888,106
599618618475131776,108
599618618482817664,113
599618618490503552,116
599618618498189440,108
599618618505875328,103
599618618513561216,113
599618618521246976,113
599618618528932864,99
599618618536618752,103
599618618544304640,113
599618618551990528,106
599618618559676416,111
599618618567362176,118
599618618575048064,99
599618618582733952,106
599618618590419840,125
599618618598105728,118
599618618605791616,111
599618618613477376,118
599618618621163264,120
599618618628849152,120
599618618636535040,120
599618618644220928,125
599618618651906816,130
599618618659592576,132
599618618667278464,125
599618618674964352,116
599618618682650240,120
599618618690336128,130
599618618698022016,128
599618618705707904,120
599618618713393664,125
599618618721079552,142
599618618728765440,157
599618618736451328,149
599618618744137216,135
599618618751823071,128
599618618759508992,120
599618618767194880,113
599618618774880768,111
599618618782566656,116
599618618790252416,120
599618618797938304,118
599618618805624192,113
599618618813310080,116
599618618820995968,113
599618618828681856,103
599618618836367616,72
599618618844053504,21
599618618851739392,82
599618618859425280,306
599618618867111168,488
599618618874797056,398
599618618882482816,154
599618618890168704,26
599618618897854592,33
599618618905540480,60
599618618913226368,99
599618618920912256,123
599618618928598144,108
599618618936283904,101
599618618943969792,116
599618618951655680,113
599618618959341568,108
599618618967027456,118
599618618974713344,123
599618618982399104,120
599618618990084992,118
599618618997770880,125
599618619005456768,132
599618619013142656,130
599618619020828544,128
599618619028514304,140
599618619036200192,145
599618619043886080,140
599618619051571968,147
599618619059257856,154
599618619066943744,152
599618619074629632,149
599618619082315392,154
599618619090001280,159
599618619097687168,159
599618619105373056,154
599618619113058944,152
599618619120744832,149
599618619128430592,137
599618619136116480,118
599618619143802368,111
599618619151488256,101
599618619159174144,84
599618619166860032,79
599618619174545792,82
599618619182231680,74
599618619189917568,74
599618619197603456,77
599618619205289344,72
599618619212975232,82
599618619220660992,87
599618619228346880,74
599618619236032768,74
599618619243718656,82
599618619251404544,82
599618619259090432,89
599618619266776320,89
599618619274462080,84
599618619282147968,91
599618619289833856,91
599618619297519744,84
599618619305205632,94
599618619312891414,103
599618619320577280,91
599618619328263168,87
599618619335949056,101
599618619343634944,103
599618619351320704,94
599618619359006592,99
599618619366692480,99
599618619374378368,91
599618619382064256,96
599618619389750144,99
599618619397435904,99
599618619405121792,96
599618619412807680,91
599618619420493568,96
599618619428179456,103
599618619435865344,99
599618619443551104,91
599618619451236992,96
599618619458922880,101
599618619466608768,101
599618619474294656,101
599618619481980544,101
599618619489666432,101
599618619497352192,99
599618619505038080,101
599618619512723968,101
599618619520409856,99
599618619528095744,103
599618619535781632,103
599618619543467392,99
599618619551153280,103
599618619558839168,106
599618619566525056,101
599618619574210944,101
599618619581896832,101
599618619589582592,101
599618619597268480,101
599618619604954368,103
599618619612640256,103
599618619620326144,103
599618619628012032,103
599618619635697920,101
599618619643383680,106
599618619651069568,101
599618619658755456,96
599618619666441344,106
599618619674127232,103
599618619681813120,94
599618619689498880,99
599618619697184768,108
599618619704870656,120
599618619712556544,128
599618619720242432,120
599618619727928320,118
599618619735614080,116
599618619743299968,96
599618619750985856,84
599618619758671744,96
599618619766357632,108
599618619774043520,99
599618619781729280,91
599618619789415168,99
599618619797101056,103
599618619804786944,87
599618619812472832,70
599618619820158720,26
599618619827844608,-19
599618619835530368,79
599618619843216256,350
599618619850902144,531
599618619858588032,386
599618619866273920,99
599618619873959757,-4
599618619881645696,31
599618619889331584,48
599618619897017472,79
599618619904703360,106
599618619912389120,89
599618619920075008,79
599618619927760896,94
599618619935446784,101
599618619943132672,96
599618619950818560,99
599618619958504320,103
599618619966190208,103
599618619973876096,103
599618619981561984,106
599618619989247872,111
599618619996933760,113
599618620004619520,113
599618620012305408,116
599618620019991296,116
599618620027677184,116
599618620035363072,118
599618620043048960,123
599618620050734848,128
599618620058420608,128
599618620066106496,135
599618620073792384,140
599618620081478272,135
599618620089164160,132
599618620096850048,164
599618620104535808,263
599618620112221696,427
599618620119907584,531
599618620127593472,459
599618620135279360,265
599618620142965248,181
599618620150651008,224
599618620158336896,161
599618620166022784,33
599618620173708672,33
599618620181394560,65
599618620189080448,38
599618620196766336,36
599618620204452096,45
599618620212137984,33
599618620219823872,31
599618620227509760,43
599618620235195648,41
599618620242881536,41
599618620250567296,48
599618620258253184,48
599618620265939072,48
599618620273624960,50
599618620281310848,55
599618620288996736,62
599618620296682496,72
599618620304368384,74
599618620312054272,65
599618620319740160,60
599618620327426048,62
599618620335111936,62
599618620342797696,62
599618620350483584,67
599618620358169472,67
599618620365855360,67
599618620373541248,67
599618620381227136,65
599618620388913024,67
599618620396598784,67
599618620404284672,65
599618620411970560,70
599618620419656448,72
599618620427342336,70
599618620435028100,67
599618620442714368,70
599618620450400640,77
599618620458086912,74
599618620465773184,70
599618620473459456,72
599618620481145856,72
599618620488832128,72
599618620496518400,77
599618620504204672,74
599618620511890944,74
599618620519577216,77
599618620527263488,74
599618620534949760,74
599618620542636032,82
599618620550322432,79
599618620558008704,77
599618620565694976,79
599618620573381248,82
599618620581067520,82
599618620588753792,84
599618620596440064,84
599618620604126336,79
599618620611812608,79
599618620619498880,79
599618620627185280,79
599618620634871552,79
599618620642557824,79
599618620650244096,82
599618620657930368,84
599618620665616640,89
599618620673302912,84
599618620680989184,82
599618620688675456,99
599618620696361856,116
599618620704048128,108
599618620711734400,106
599618620719420672,101
599618620727106944,84
599618620734793216,77
599618620742479488,79
599618620750165760,82
599618620757852032,82
599618620765538432,79
599618620773224704,77
599618620780910976,79
599618620788597248,82
599618620796283520,67
599618620803969792,12
599618620811656064,-43
599618620819342336,62
599618620827028608,362
599618620834715008,572
599618620842401280,403
599618620850087552,58
599618620857773824,-53
599618620865460096,12
599618620873146368,33
599618620880832640,62
599618620888518912,96
599618620896205184,74
599618620903891456,65
599618620911577856,84
599618620919264128,84
599618620926950400,79
599618620934636672,87
599618620942322944,91
599618620950009216,89
599618620957695488,94
599618620965381760,96
599618620973068032,96
599618620980754432,103
599618620988440704,103
599618620996126965,101
599618621003812864,106
599618621011498752,113
599618621019184640,120
599618621026870528,130
599618621034556288,137
599618621042242176,135
599618621049928064,137
599618621057613952,142
599618621065299840,145
599618621072985728,142
599618621080671488,140
599618621088357376,140
599618621096043264,130
599618621103729152,113
599618621111415040,101
599618621119100928,87
599618621126786688,72
599618621134472576,65
599618621142158464,65
599618621149844352,58
599618621157530240,55
599618621165216128,58
599618621172902016,60
599618621180587776,60
599618621188273664,58
599618621195959552,60
599618621203645440,65
599618621211331328,67
599618621219017216,67
599618621226702976,67
599618621234388864,70
599618621242074752,74
599618621249760640,74
599618621257446528,77
599618621265132416,79
599618621272818176,77
599618621280504064,79
599618621288189952,82
599618621295875840,84
599618621303561728,84
599618621311247616,84
599618621318933504,82
599618621326619264,84
599618621334305152,87
599618621341991040,87
599618621349676928,87
599618621357362816,89
599618621365048704,87
599618621372734464,82
599618621380420352,84
599618621388106240,87
599618621395792128,82
599618621403478016,82
599618621411163904,84
599618621418849664,82
599618621426535552,82
599618621434221440,84
599618621441907328,82
599618621449593216,82
599618621457279104,84
599618621464964864,79
599618621472650752,82
599618621480336640,87
599618621488022528,82
599618621495708416,79
599618621503394304,87
599618621511080192,87
599618621518765952,82
599618621526451840,84
599618621534137728,89
599618621541823616,89
599618621549509504,87
599618621557195308,89
599618621564881152,89
599618621572567040,84
599618621580252928,84
599618621587938816,87
599618621595624576,89
599618621603310464,87
599618621610996352,87
599618621618682240,94
599618621626368128,111
599618621634054016,118
599618621641739776,113
599618621649425664,111
599618621657111552,99
599618621664797440,79
599618621672483328,72
599618621680169216,79
599618621687854976,84
599618621695540864,79
599618621703226752,79
599618621710912640,79
599618621718598528,77
599618621726284416,77
599618621733970304,58
599618621741656064,-16
599618621749341952,-62
599618621757027840,111
599618621764713728,478
599618621772399616,674
599618621780085504,406
599618621787771264,-4
599618621795457152,-87
599618621803143040,12
599618621810828928,31
599618621818514816,60
599618621826200704,99
599618621833886464,74
599618621841572352,65
599618621849258240,87
599618621856944128,84
599618621864630016,79
599618621872315904,89
599618621880001792,94
599618621887687552,91
599618621895373440,99
599618621903059328,103
599618621910745216,101
599618621918431104,101
599618621926116992,108
599618621933802752,108
599618621941488640,111
599618621949174528,118
599618621956860416,123
599618621964546304,128
599618621972232192,135
599618621979917952,135
599618621987603840,137
599618621995289728,147
599618622002975616,149
599618622010661504,149
599618622018347392,149
599618622026033152,142
599618622033719040,130
599618622041404928,116
599618622049090816,91
599618622056776704,67
599618622064462592,55
599618622072148480,45
599618622079834240,38
599618622087520128,38
599618622095206016,38
599618622102891904,33
599618622110577792,33
599618622118263651,38
599618622125949568,43
599618622133635456,41
599618622141321344,41
599618622149007232,45
599618622156692992,50
599618622164378880,50
599618622172064768,48
599618622179750656,53
599618622187436544,55
599618622195122432,55
599618622202808192,58
599618622210494080,62
599618622218179968,62
599618622225865856,62
599618622233551744,62
599618622241237632,62
599618622248923392,65
599618622256609280,67
599618622264295168,67
599618622271981056,67
599618622279666944,67
599618622287352832,72
599618622295038720,70
599618622302724480,67
599618622310410368,70
599618622318096256,74
599618622325782144,70
599618622333468032,70
599618622341153920,72
599618622348839680,72
599618622356525568,70
599618622364211456,70
599618622371897344,72
599618622379583232,72
599618622387269120,72
599618622394954880,72
599618622402640768,74
599618622410326656,72
599618622418012544,70
599618622425698432,74
599618622433384320,77
599618622441070208,74
599618622448755968,74
599618622456441856,77
599618622464127744,74
599618622471813632,77
599618622479499520,77
599618622487185408,72
599618622494871168,72
599618622502557056,94
599618622510242944,113
599618622517928832,111
599618622525614720,103
599618622533300608,96
599618622540986368,77
599618622548672256,67
599618622556358144,72
599618622564044032,77
599618622571729920,74
599618622579415808,72
599618622587101568,74
599618622594787456,74
599618622602473344,77
599618622610159232,67
599618622617845120,2
599618622625531008,-79
599618622633216896,2
599618622640902656,355
599618622648588544,710
599618622656274432,621
599618622663960320,142
599618622671646208,-125
599618622679331994,-41
599618622687017856,24
599618622694703744,33
599618622702389632,82
599618622710075520,79
599618622717761280,55
599618622725447168,72
599618622733133056,87
599618622740818944,79
599618622748504832,79
599618622756190720,87
599618622763876480,91
599618622771562368,89
599618622779248256,91
599618622786934144,99
599618622794620032,99
599618622802305920,103
599618622809991680,108
599618622817677568,108
599618622825363456,113
599618622833049344,120
599618622840735232,125
599618622848421120,132
599618622856107008,135
599618622863792768,140
599618622871478656,147
599618622879164544,149
599618622886850432,149
599618622894536320,152
599618622902222208,147
599618622909907968,132
599618622917593856,113
599618622925279744,91
599618622932965632,65
599618622940651520,48
599618622948337408,38
599618622956023168,29
599618622963709056,26
599618622971394944,26
599618622979080832,24
599618622986766720,29
599618622994452608,31
599618623002138496,33
599618623009824256,33
599618623017510144,36
599618623025196032,38
599618623032881920,38
599618623040567808,41
599618623048253696,43
599618623055939456,43
599618623063625344,48
599618623071311232,48
599618623078997120,53
599618623086683008,58
599618623094368896,58
599618623102054656,55
599618623109740544,60
599618623117426432,62
599618623125112320,62
599618623132798208,62
599618623140484096,67
599618623148169856,67
599618623155855744,65
599618623163541632,67
599618623171227520,67
599618623178913408,65
599618623186599296,67
599618623194285184,70
599618623201970944,67
599618623209656832,65
599618623217342720,67
599618623225028608,67
599618623232714496,65
599618623240400337,67
599618623248086272,67
599618623255772160,67
599618623263458048,67
599618623271143936,65
599618623278829696,67
599618623286515584,70
599618623294201472,67
599618623301887360,67
599618623309573248,72
599618623317259136,72
599618623324944896,70
599618623332630784,67
599618623340316672,70
599618623348002560,70
599618623355688448,72
599618623363374336,70
599618623371060096,67
599618623378745984,67
599618623386431872,70
599618623394117760,65
599618623401803648,65
599618623409489536,82
599618623417175424,103
599618623424861184,106
599618623432547072,101
599618623440232960,94
599618623447918848,74
599618623455604736,60
599618623463290624,62
599618623470976384,65
599618623478662272,62
599618623486348160,60
599618623494034048,65
599618623501719936,65
599618623509405824,65
599618623517091584,58
599618623524777472,0
599618623532463360,-96
599618623540149248,-50
599618623547835136,292
599618623555521024,725
599618623563206912,754
599618623570892672,268
599618623578578560,-123
599618623586264448,-82
599618623593950336,16
599618623601636224,16
599618623609322112,48
599618623617007872,60
599618623624693760,36
599618623632379648,43
599618623640065536,58
599618623647751424,55
599618623655437312,55
599618623663123072,62
599618623670808960,65
599618623678494848,70
599618623686180736,70
599618623693866624,72
599618623701552512,77
599618623709238272,82
599618623716924160,84
599618623724610048,87
599618623732295936,91
599618623739981824,99
599618623747667712,103
599618623755353600,106
599618623763039360,111
599618623770725248,118
599618623778411136,125
599618623786097024,128
599618623793782912,128
599618623801468680,128
599618623809154560,125
599618623816840448,118
599618623824526336,103
599618623832212224,82
599618623839897984,60
599618623847583872,43
599618623855269760,29
599618623862955648,24
599618623870641536,19
599618623878327424,16
599618623886013184,19
599618623893699072,21
599618623901384960,21
599618623909070848,19
599618623916756736,21
599618623924442624,26
599618623932128384,29
599618623939814272,29
599618623947500160,31
599618623955186048,33
599618623962871936,33
599618623970557824,36
599618623978243712,38
599618623985929472,43
599618623993615360,45
599618624001301248,45
599618624008987136,45
599618624016673024,48
599618624024358912,50
599618624032044672,50
599618624039730560,53
599618624047416448,53
599618624055102336,50
599618624062788224,50
599618624070474112,50
599618624078159872,50
599618624085845760,55
599618624093531648,53
599618624101217536,48
599618624108903424,50
599618624116589312,53
599618624124275200,53
599618624131960960,53
599618624139646848,58
599618624147332736,55
599618624155018624,50
599618624162704512,53
599618624170390400,58
599618624178076160,55
599618624185762048,55
599618624193447936,55
599618624201133824,58
599618624208819712,55
599618624216505600,53
599618624224191360,53
599618624231877248,55
599618624239563136,55
599618624247249024,55
599618624254934912,58
599618624262620800,58
599618624270306688,55
599618624277992448,58
599618624285678336,58
599618624293364224,58
599618624301050112,60
599618624308736000,60
599618624316421888,62
599618624324107648,65
599618624331793536,58
599618624339479424,55
599618624347165312,58
599618624354851200,60
599618624362537027,60
599618624370222976,58
599618624377908864,53
599618624385594752,55
599618624393280640,82
599618624400966400,101
599618624408652288,96
599618624416338176,91
599618624424024064,87
599618624431709952,62
599618624439395840,48
599618624447081600,55
599618624454767488,58
599618624462453376,55
599618624470139264,58
599618624477825152,58
599618624485511040,58
599618624493196800,60
599618624500882688,48
599618624508568576,-31
599618624516254464,-128
599618624523940352,-33
599618624531626240,374
599618624539312128,821
599618624546997888,790
599618624554683776,248
599618624562369664,-125
599618624570055552,-65
599618624577741440,24
599618624585427328,19
599618624593113088,33
599618624600798976,36
599618624608484864,21
599618624616170752,31
599618624623856640,43
599618624631542528,43
599618624639228288,45
599618624646914176,53
599618624654600064,55
599618624662285952,55
599618624669971840,60
599618624677657728,65
599618624685343616,67
599618624693029376,67
599618624700715264,72
599618624708401152,77
599618624716087040,79
599618624723772928,84
599618624731458816,87
599618624739144576,89
599618624746830464,96
599618624754516352,101
599618624762202240,101
599618624769888128,108
599618624777574016,113
599618624785259776,111
599618624792945664,108
599618624800631552,106
599618624808317440,94
599618624816003328,77
599618624823689216,58
599618624831374976,38
599618624839060864,29
599618624846746752,21
599618624854432640,16
599618624862118528,14
599618624869804416,14
599618624877490304,14
599618624885176064,16
599618624892861952,21
599618624900547840,24
599618624908233728,26
599618624915919616,29
599618624923605370,29
599618624931291904,31
599618624938978432,33
599618624946664832,36
599618624954351360,33
599618624962037888,36
599618624969724416,36
599618624977410816,38
599618624985097344,41
599618624992783872,41
599618625000470400,43
599618625008156800,45
599618625015843328,45
599618625023529856,45
599618625031216384,48
599618625038902784,48
599618625046589312,48
599618625054275840,50
599618625061962368,48
599618625069648768,50
599618625077335296,50
599618625085021824,48
599618625092708352,50
599618625100394752,53
599618625108081280,50
599618625115767808,50
599618625123454336,53
599618625131140736,53
599618625138827264,53
599618625146513792,53
599618625154200192,50
599618625161886720,53
599618625169573248,55
599618625177259776,53
599618625184946176,55
599618625192632704,55
599618625200319232,55
599618625208005760,55
599618625215692160,55
599618625223378688,55
599618625231065216,55
599618625238751744,55
599618625246438144,58
599618625254124672,58
599618625261811200,55
599618625269497728,60
599618625277184128,60
599618625284870656,58
599618625292557184,60
599618625300243712,60
599618625307930112,60
599618625315616640,58
599618625323303168,58
599618625330989696,60
599618625338676096,58
599618625346362624,58
599618625354049152,58
599618625361735552,58
599618625369422080,60
599618625377108608,60
599618625384795136,58
599618625392481536,58
599618625400168064,58
599618625407854592,48
599618625415541120,48
599618625423227520,72
599618625430914048,99
599618625438600576,101
599618625446287104,91
599618625453973504,82
599618625461660032,62
599618625469346560,48
599618625477033088,53
599618625484719490,60
599618625492404736,58
599618625500089984,58
599618625507775232,60
599618625515460480,58
599618625523145728,58
599618625530830976,45
599618625538516224,-38
599618625546201472,-147
599618625553886720,-38
599618625561571840,408
599618625569257088,887
599618625576942336,862
599618625584627584,302
599618625592312832,-108
599618625599998080,-72
599618625607683328,19
599618625615368576,16
599618625623053824,19
599618625630739072,14
599618625638424320,9
599618625646109568,21
599618625653794816,29
599618625661480064,33
599618625669165312,38
599618625676850560,41
599618625684535808,43
599618625692221056,50
599618625699906176,55
599618625707591424,55
599618625715276672,60
599618625722961920,65
599618625730647168,67
599618625738332416,70
599618625746017664,77
599618625753702912,79
599618625761388160,84
599618625769073408,89
599618625776758656,91
599618625784443904,99
599618625792129152,106
599618625799814400,108
599618625807499648,111
599618625815184896,111
599618625822870144,111
599618625830555264,106
599618625838240512,94
599618625845925760,74
599618625853611008,58
599618625861296256,41
599618625868981504,29
599618625876666752,21
599618625884352000,14
599618625892037248,12
599618625899722496,12
599618625907407744,12
599618625915092992,14
599618625922778240,19
599618625930463488,19
599618625938148736,21
599618625945833984,24
599618625953519232,26
599618625961204352,26
599618625968889600,29
599618625976574848,33
599618625984260096,36
599618625991945344,36
599618625999630592,38
599618626007315840,38
599618626015001088,38
599618626022686336,41
599618626030371584,43
599618626038056832,45
599618626045742056,45
599618626053427968,45
599618626061113856,48
599618626068799744,50
599618626076485632,48
599618626084171392,48
599618626091857280,50
599618626099543168,50
599618626107229056,50
599618626114914944,50
599618626122600832,50
599618626130286592,50
599618626137972480,53
599618626145658368,50
599618626153344256,50
599618626161030144,53
599618626168716032,53
599618626176401792,53
599618626184087680,53
599618626191773568,53
599618626199459456,53
599618626207145344,53
599618626214831232,53
599618626222517120,53
599618626230202880,53
599618626237888768,50
599618626245574656,48
599618626253260544,50
599618626260946432,53
599618626268632320,53
599618626276318080,53
599618626284003968,53
599618626291689856,53
599618626299375744,50
599618626307061632,53
599618626314747520,55
599618626322433280,53
599618626330119168,55
599618626337805056,55
599618626345490944,53
599618626353176832,53
599618626360862720,58
599618626368548608,55
599618626376234368,55
599618626383920256,55
599618626391606144,55
599618626399292032,50
599618626406977920,43
599618626414663808,48
599618626422349568,77
599618626430035456,96
599618626437721344,91
599618626445407232,84
599618626453093120,72
599618626460779008,48
599618626468464768,38
599618626476150656,50
599618626483836544,53
599618626491522432,50
599618626499208320,50
599618626506894208,50
599618626514579968,50
599618626522265856,50
599618626529951744,31
599618626537637632,-60
599618626545323520,-157
599618626553009408,-4
599618626560695296,476
599618626568381056,928
599618626576066944,816
599618626583752832,217
599618626591438720,-159
599618626599124608,-101
599618626606810399,-2
599618626614496256,14
599618626622182144,19
599618626629868032,7
599618626637553920,4
599618626645239680,21
599618626652925568,24
599618626660611456,26
599618626668297344,36
599618626675983232,41
599618626683669120,45
599618626691354880,50
599618626699040768,53
599618626706726656,55
599618626714412544,60
599618626722098432,65
599618626729784320,70
599618626737470080,74
599618626745155968,77
599618626752841856,82
599618626760527744,87
599618626768213632,91
599618626775899520,99
599618626783585408,103
599618626791271168,108
599618626798957056,113
599618626806642944,116
599618626814328832,116
599618626822014720,113
599618626829700608,106
599618626837386368,89
599618626845072256,67
599618626852758144,43
599618626860444032,26
599618626868129920,16
599618626875815808,9
599618626883501568,4
599618626891187456,2
599618626898873344,2
599618626906559232,2
599618626914245120,7
599618626921931008,9
599618626929616896,9
599618626937302656,14
599618626944988544,16
599618626952674432,16
599618626960360320,21
599618626968046208,24
599618626975732096,21
599618626983417856,26
599618626991103744,31
599618626998789632,31
599618627006475520,31
599618627014161408,36
599618627021847296,41
599618627029533056,41
599618627037218944,41
599618627044904832,43
599618627052590720,43
599618627060276608,43
599618627067962496,43
599618627075648256,45
599618627083334144,45
599618627091020032,45
599618627098705920,43
599618627106391808,45
599618627114077696,43
599618627121763584,43
599618627129449344,45
599618627137135232,48
599618627144821120,48
599618627152507008,48
599618627160192896,45
599618627167878742,48
599618627175564672,50
599618627183250560,48
599618627190936448,45
599618627198622336,48
599618627206308096,48
599618627213993984,48
599618627221679872,48
599618627229365760,50
599618627237051648,48
599618627244737536,48
599618627252423296,48
599618627260109184,48
599618627267795072,48
599618627275480960,53
599618627283166848,53
599618627290852736,50
599618627298538496,53
599618627306224384,53
599618627313910272,55
599618627321596160,55
599618627329282048,53
599618627336967936,55
599618627344653824,55
599618627352339584,55
599618627360025472,55
599618627367711360,55
599618627375397248,58
599618627383083136,58
599618627390769024,58
599618627398454784,55
599618627406140672,55
599618627413826560,55
599618627421512448,50
599618627429198336,41
599618627436884224,50
599618627444569984,84
599618627452255872,106
599618627459941760,96
599618627467627648,87
599618627475313536,72
599618627482999424,50
599618627490685312,45
599618627498371072,55
599618627506056960,55
599618627513742848,50
599618627521428736,55
599618627529114624,58
599618627536800512,55
599618627544486272,53
599618627552172160,14
599618627559858048,-99
599618627567543936,-149
599618627575229824,116
599618627582915712,647
599618627590601472,969
599618627598287360,650
599618627605973248,26
599618627613659136,-200
599618627621345024,-79
599618627629030912,2
599618627636716800,26
599618627644402560,26
599618627652088448,7
599618627659774336,14
599618627667460224,33
599618627675146112,33
599618627682832000,36
599618627690517760,43
599618627698203648,48
599618627705889536,53
599618627713575424,55
599618627721261312,58
599618627728947089,60
599618627736632960,65
599618627744318848,72
599618627752004736,72
599618627759690624,77
599618627767376384,84
599618627775062272,89
599618627782748160,94
599618627790434048,101
599618627798119936,108
599618627805805824,113
599618627813491584,118
599618627821177472,120
599618627828863360,123
599618627836549248,123
599618627844235136,118
599618627851921024,108
599618627859606784,91
599618627867292672,67
599618627874978560,43
599618627882664448,26
599618627890350336,12
599618627898036224,4
599618627905722112,2
599618627913407872,0
599618627921093760,-2
599618627928779648,0
599618627936465536,2
599618627944151424,4
599618627951837312,7
599618627959523072,7
599618627967208960,9
599618627974894848,12
599618627982580736,14
599618627990266624,19
599618627997952512,19
599618628005638272,19
599618628013324160,21
599618628021010048,26
599618628028695936,29
599618628036381824,31
599618628044067712,31
599618628051753600,31
599618628059439360,33
599618628067125248,36
599618628074811136,33
599618628082497024,33
599618628090182912,36
599618628097868800,38
599618628105554560,38
599618628113240448,36
599618628120926336,38
599618628128612224,38
599618628136298112,38
599618628143984000,38
599618628151669760,38
599618628159355648,41
599618628167041536,41
599618628174727424,41
599618628182413312,43
599618628190099200,45
599618628197784960,43
599618628205470848,43
599618628213156736,43
599618628220842624,43
599618628228528512,43
599618628236214400,45
599618628243900288,45
599618628251586048,43
599618628259271936,43
599618628266957824,48
599618628274643712,45
599618628282329600,43
599618628290015432,48
599618628297701376,48
599618628305387264,45
599618628313073152,50
599618628320759040,50
599618628328444800,48
599618628336130688,48
599618628343816576,50
599618628351502464,48
599618628359188352,53
599618628366874240,53
599618628374560000,50
599618628382245888,53
599618628389931776,55
599618628397617664,50
599618628405303552,50
599618628412989440,50
599618628420675200,38
599618628428361088,38
599618628436046976,70
599618628443732864,101
599618628451418752,99
599618628459104640,84
599618628466790528,74
599618628474476288,53
599618628482162176,41
599618628489848064,48
599618628497533952,53
599618628505219840,50
599618628512905728,48
599618628520591488,53
599618628528277376,53
599618628535963264,50
599618628543649152,33
599618628551335040,-53
599618628559020928,-157
599618628566706688,-26
599618628574392576,449
599618628582078464,918
599618628589764352,833
599618628597450240,219
599618628605136128,-200
599618628612822016,-154
599618628620507776,-29
599618628628193664,16
599618628635879552,38
599618628643565440,19
599618628651251328,9
599618628658937216,31
599618628666622976,38
599618628674308864,36
599618628681994752,43
599618628689680640,48
599618628697366528,53
599618628705052416,58
599618628712738176,62
599618628720424064,65
599618628728109952,70
599618628735795840,74
599618628743481728,82
599618628751167616,87
599618628758853376,89
599618628766539264,96
599618628774225152,101
599618628781911040,108
599618628789596928,111
599618628797282816,118
599618628804968704,125
599618628812654464,130
599618628820340352,130
599618628828026240,130
599618628835712128,130
599618628843398016,123
599618628851083775,108
599618628858769280,82
599618628866454784,55
599618628874140160,33
599618628881825664,19
599618628889511040,9
599618628897196544,2
599618628904881920,0
599618628912567424,0
599618628920252928,0
599618628927938304,0
599618628935623808,2
599618628943309184,4
599618628950994688,7
599618628958680064,12
599618628966365568,16
599618628974051072,16
599618628981736448,21
599618628989421952,26
599618628997107328,26
599618629004792832,29
599618629012478336,31
599618629020163712,33
599618629027849216,36
599618629035534592,38
599618629043220096,38
599618629050905472,38
599618629058590976,41
599618629066276480,41
599618629073961856,38
599618629081647360,41
599618629089332736,43
599618629097018240,43
599618629104703616,41
599618629112389120,43
599618629120074624,43
599618629127760000,43
599618629135445504,43
599618629143130880,43
599618629150816384,45
599618629158501760,45
599618629166187264,45
599618629173872768,48
599618629181558144,48
599618629189243648,48
599618629196929024,48
599618629204614528,50
599618629212299904,50
599618629219985408,48
599618629227670912,50
599618629235356288,50
599618629243041792,50
599618629250727168,53
599618629258412672,55
599618629266098048,50
599618629273783552,50
599618629281469056,55
599618629289154432,55
599618629296839936,53
599618629304525312,55
599618629312210816,55
599618629319896320,58
599618629327581696,58
599618629335267200,60
599618629342952576,60
599618629350638080,58
599618629358323456,58
599618629366008960,53
599618629373694464,43
599618629381379840,55
599618629389065344,89
599618629396750720,108
599618629404436224,103
599618629412121600,89
599618629419807488,74
599618629427493376,55
599618629435179264,55
599618629442865152,65
599618629450550912,62
599618629458236800,60
599618629465922688,65
599618629473608576,65
599618629481294464,65
599618629488980352,62
599618629496666112,19
599618629504352000,-94
599618629512037888,-118
599618629519723776,188
599618629527409664,720
599618629535095552,966
599618629542781312,558
599618629550467200,-60
599618629558153088,-217
599618629565838976,-82
599618629573524864,-14
599618629581210752,43
599618629588896640,70
599618629596582400,31
599618629604268288,33
599618629611954176,60
599618629619640064,58
599618629627325952,55
599618629635011840,65
599618629642697600,67
599618629650383488,70
599618629658069376,77
599618629665755264,79
599618629673441152,82
599618629681127040,89
599618629688812800,89
599618629696498688,94
599618629704184576,101
599618629711870464,106
599618629719556352,111
599618629727242240,116
599618629734928128,120
599618629742613888,130
599618629750299776,140
599618629757985664,142
599618629765671552,145
599618629773357440,145
599618629781043328,145
599618629788729088,140
599618629796414976,130
599618629804100864,106
599618629811786752,74
599618629819472640,48
599618629827158528,29
599618629834844288,14
599618629842530176,4
599618629850216064,0
599618629857901952,-2
599618629865587840,0
599618629873273728,0
599618629880959488,0
599618629888645376,2
599618629896331264,7
599618629904017152,9
599618629911703040,12
599618629919388928,16
599618629927074816,21
599618629934760576,29
599618629942446464,31
599618629950132352,31
599618629957818240,36
599618629965504128,38
599618629973189943,41
599618629980875776,45
599618629988561664,43
599618629996247552,43
599618630003933440,48
599618630011619200,48
599618630019305088,45
599618630026990976,45
599618630034676864,45
599618630042362752,45
599618630050048640,45
599618630057734400,43
599618630065420288,43
599618630073106176,43
599618630080792064,45
599618630088477952,43
599618630096163840,43
599618630103849600,43
599618630111535488,45
599618630119221376,45
599618630126907264,43
599618630134593152,43
599618630142279040,45
599618630149964928,43
599618630157650688,43
599618630165336576,45
599618630173022464,48
599618630180708352,45
599618630188394240,43
599618630196080128,43
599618630203765888,43
599618630211451776,36
599618630219137664,31
599618630226823552,48
599618630234509440,82
599618630242195328,94
599618630249881088,79
599618630257566976,67
599618630265252864,55
599618630272938752,36
599618630280624640,36
599618630288310528,45
599618630295996416,41
599618630303682176,36
599618630311368064,41
599618630319053952,43
599618630326739840,43
599618630334425728,38
599618630342111616,0
599618630349797376,-101
599618630357483264,-128
599618630365169152,152
599618630372855040,638
599618630380540928,829
599618630388226816,396
599618630395912576,-171
599618630403598464,-241
599618630411284352,-94
599618630418970240,-60
599618630426656128,21
599618630434342016,84
599618630442027776,36
599618630449713664,24
599618630457399552,58
599618630465085440,53
599618630472771328,45
599618630480457216,62
599618630488143104,65
599618630495828864,60
599618630503514752,70
599618630511200640,77
599618630518886528,79
599618630526572416,84
599618630534258286,91
599618630541944192,94
599618630549630080,99
599618630557315968,106
599618630565001856,111
599618630572687616,120
599618630580373504,125
599618630588059392,130
599618630595745280,140
599618630603431168,147
599618630611117056,149
599618630618802816,147
599618630626488704,149
599618630634174592,145
599618630641860480,123
599618630649546368,89
599618630657232256,55
599618630664918016,26
599618630672603904,4
599618630680289792,-9
599618630687975680,-19
599618630695661568,-24
599618630703347456,-24
599618630711033344,-21
599618630718719104,-21
599618630726404992,-21
599618630734090880,-19
599618630741776768,-12
599618630749462656,-12
599618630757148544,-9
599618630764834304,-7
599618630772520192,-2
599618630780206080,2
599618630787891968,4
599618630795577856,7
599618630803263744,9
599618630810949504,12
599618630818635392,16
599618630826321280,16
599618630834007168,16
599618630841693056,19
599618630849378944,24
599618630857064832,21
599618630864750592,21
599618630872436480,24
599618630880122368,19
599618630887808256,21
599618630895494144,29
599618630903180032,26
599618630910865792,24
599618630918551680,24
599618630926237568,24
599618630933923456,26
599618630941609344,29
599618630949295232,26
599618630956980992,26
599618630964666880,26
599618630972352768,31
599618630980038656,29
599618630987724544,26
599618630995410432,26
599618631003096320,24
599618631010782080,19
599618631018467968,41
599618631026153856,72
599618631033839744,74
599618631041525632,65
599618631049211520,60
599618631056897280,43
599618631064583168,24
599618631072269056,24
599618631079954944,29
599618631087640832,29
599618631095326633,29
599618631103012480,29
599618631110698368,29
599618631118384256,29
599618631126070144,29
599618631133755904,2
599618631141441792,-89
599618631149127680,-149
599618631156813568,65
599618631164499456,524
599618631172185344,775
599618631179871104,430
599618631187556992,-135
599618631195242880,-251
599618631202928768,-101
599618631210614656,-70
599618631218300544,-4
599618631225986304,70
599618631233672192,31
599618631241358080,12
599618631249043968,48
599618631256729856,50
599618631264415744,38
599618631272101632,45
599618631279787392,53
599618631287473280,55
599618631295159168,60
599618631302845056,62
599618631310530944,60
599618631318216832,67
599618631325902592,77
599618631333588480,79
599618631341274368,82
599618631348960256,87
599618631356646144,96
599618631364332032,106
599618631372017792,113
599618631379703680,120
599618631387389568,125
599618631395075456,132
599618631402761344,137
599618631410447232,137
599618631418133120,137
599618631425818880,132
599618631433504768,116
599618631441190656,82
599618631448876544,43
599618631456562432,16
599618631464248320,0
599618631471934080,-14
599618631479619968,-24
599618631487305856,-26
599618631494991744,-26
599618631502677632,-26
599618631510363520,-26
599618631518049280,-21
599618631525735168,-19
599618631533421056,-16
599618631541106944,-14
599618631548792832,-12
599618631556478720,-9
599618631564164480,-7
599618631571850368,-2
599618631579536256,2
599618631587222144,4
599618631594908032,4
599618631602593920,12
599618631610279808,14
599618631617965568,14
599618631625651456,16
599618631633337344,16
599618631641023232,19
599618631648709120,21
599618631656394976,21
599618631664080896,19
599618631671766784,21
599618631679452672,24
599618631687138560,24
599618631694824320,21
599618631702510208,21
599618631710196096,24
599618631717881984,21
599618631725567872,21
599618631733253760,24
599618631740939520,21
599618631748625408,19
599618631756311296,38
599618631763997184,65
599618631771683072,65
599618631779368960,58
599618631787054720,53
599618631794740608,36
599618631802426496,21
599618631810112384,21
599618631817798272,24
599618631825484160,24
599618631833170048,24
599618631840855808,26
599618631848541696,29
599618631856227584,29
599618631863913472,29
599618631871599360,12
599618631879285248,-62
599618631886971008,-147
599618631894656896,-24
599618631902342784,381
599618631910028672,725
599618631917714560,538
599618631925400448,-9
599618631933086208,-239
599618631940772096,-118
599618631948457984,-62
599618631956143872,-21
599618631963829760,60
599618631971515648,45
599618631979201536,9
599618631986887296,36
599618631994573184,50
599618632002259072,41
599618632009944960,43
599618632017630848,55
599618632025316736,55
599618632033002496,55
599618632040688384,62
599618632048374272,65
599618632056060160,67
599618632063746048,72
599618632071431936,77
599618632079117696,84
599618632086803584,91
599618632094489472,96
599618632102175360,103
599618632109861248,116
599618632117547136,123
599618632125232896,128
599618632132918784,135
599618632140604672,140
599618632148290560,140
599618632155976448,137
599618632163662336,132
599618632171348224,116
599618632179033984,82
599618632186719872,48
599618632194405760,21
599618632202091648,2
599618632209777536,-12
599618632217463319,-19
599618632225148800,-19
599618632232834304,-16
599618632240519680,-16
599618632248205184,-16
599618632255890560,-16
599618632263576064,-12
599618632271261440,-12
599618632278946944,-9
599618632286632448,-7
599618632294317824,-2
599618632302003328,2
599618632309688704,2
599618632317374208,2
599618632325059584,7
599618632332745088,12
599618632340430592,14
599618632348115968,19
599618632355801472,19
599618632363486848,19
599618632371172352,24
599618632378857856,24
599618632386543232,24
599618632394228736,26
599618632401914112,29
599618632409599616,24
599618632417284992,26
599618632424970496,29
599618632432656000,26
599618632440341376,24
599618632448026880,29
599618632455712256,26
599618632463397760,29
599618632471083136,26
599618632478768640,21
599618632486454144,24
599618632494139520,43
599618632501825024,65
599618632509510400,67
599618632517195904,62
599618632524881280,58
599618632532566784,38
599618632540252288,24
599618632547937664,24
599618632555623168,29
599618632563308544,26
599618632570994048,24
599618632578679424,26
599618632586364928,26
599618632594050432,26
599618632601735808,29
599618632609421312,19
599618632617106688,-43
599618632624792192,-135
599618632632477568,-60
599618632640163072,304
599618632647848576,676
599618632655533952,577
599618632663219456,70
599618632670904832,-212
599618632678590336,-123
599618632686275840,-50
599618632693961216,-24
599618632701646720,45
599618632709332096,41
599618632717017600,9
599618632724702976,31
599618632732388480,43
599618632740073984,31
599618632747759360,38
599618632755444864,53
599618632763130240,48
599618632770815744,48
599618632778501144,58
599618632786187008,62
599618632793872896,62
599618632801558784,67
599618632809244672,72
599618632816930432,72
599618632824616320,79
599618632832302208,87
599618632839988096,94
599618632847673984,103
599618632855359872,108
599618632863045632,113
599618632870731520,120
599618632878417408,125
599618632886103296,128
599618632893789184,128
599618632901475072,120
599618632909160832,103
599618632916846720,79
599618632924532608,50
599618632932218496,21
599618632939904384,2
599618632947590272,-7
599618632955276160,-12
599618632962961920,-16
599618632970647808,-16
599618632978333696,-14
599618632986019584,-9
599618632993705472,-9
599618633001391360,-9
599618633009077120,-7
599618633016763008,-2
599618633024448896,0
599618633032134784,0
599618633039820672,2
599618633047506560,7
599618633055192320,7
599618633062878208,7
599618633070564096,14
599618633078249984,19
599618633085935872,19
599618633093621760,16
599618633101307648,19
599618633108993408,21
599618633116679296,26
599618633124365184,26
599618633132051072,26
599618633139736960,29
599618633147422848,26
599618633155108608,26
599618633162794496,29
599618633170480384,29
599618633178166272,29
599618633185852160,29
599618633193538048,26
599618633201223808,31
599618633208909696,33
599618633216595584,29
599618633224281472,29
599618633231967360,33
599618633239653248,33
599618633247339008,29
599618633255024896,33
599618633262710784,31
599618633270396672,26
599618633278082560,43
599618633285768448,67
599618633293454336,70
599618633301140096,62
599618633308825984,67
599618633316511872,50
599618633324197760,24
599618633331883648,24
599618633339569487,31
599618633347255424,29
599618633354941312,31
599618633362627200,33
599618633370313088,31
599618633377998848,33
599618633385684736,33
599618633393370624,24
599618633401056512,-14
599618633408742400,-101
599618633416428288,-94
599618633424114048,181
599618633431799936,580
599618633439485824,633
599618633447171712,205
599618633454857600,-164
599618633462543488,-137
599618633470229248,-41
599618633477915136,-21
599618633485601024,33
599618633493286912,48
599618633500972800,16
599618633508658688,26
599618633516344576,43
599618633524030336,38
599618633531716224,38
599618633539402112,45
599618633547088000,48
599618633554773888,50
599618633562459776,53
599618633570145536,55
599618633577831424,58
599618633585517312,62
599618633593203200,67
599618633600889088,72
599618633608574976,72
599618633616260736,74
599618633623946624,87
599618633631632512,91
599618633639318400,91
599618633647004288,99
599618633654690176,108
599618633662376064,113
599618633670061824,116
599618633677747712,116
599618633685433600,106
599618633693119488,96
599618633700805376,82
599618633708491264,58
599618633716177024,29
599618633723862912,7
599618633731548800,0
599618633739234688,-7
599618633746920576,-14
599618633754606464,-14
599618633762292224,-9
599618633769978112,-9
599618633777664000,-9
599618633785349888,-9
599618633793035776,-7
599618633800721664,0
599618633808407424,0
599618633816093312,-2
599618633823779200,2
599618633831465088,4
599618633839150976,4
599618633846836864,12
599618633854522752,14
599618633862208512,12
599618633869894400,16
599618633877580288,19
599618633885266176,21
599618633892952064,24
599618633900637830,24
599618633908323328,24
599618633916008832,24
599618633923694208,26
599618633931379712,26
599618633939065088,26
599618633946750592,26
599618633954435968,26
599618633962121472,26
599618633969806976,26
599618633977492352,31
599618633985177856,31
599618633992863232,29
599618634000548736,29
599618634008234112,29
599618634015919616,31
599618634023605120,33
599618634031290496,31
599618634038976000,31
599618634046661376,31
599618634054346880,33
599618634062032384,33
599618634069717760,29
599618634077403264,29
599618634085088640,36
599618634092774144,38
599618634100459520,31
599618634108145024,31
599618634115830528,36
599618634123515904,33
599618634131201408,33
599618634138886784,38
599618634146572288,36
599618634154257664,36
599618634161943168,36
599618634169628672,36
599618634177314048,36
599618634184999552,38
599618634192684928,33
599618634200370432,33
599618634208055808,36
599618634215741312,38
599618634223426816,36
599618634231112192,31
599618634238797696,38
599618634246483072,62
599618634254168576,77
599618634261853952,67
599618634269539456,60
599618634277224960,50
599618634284910336,36
599618634292595840,31
599618634300281216,31
599618634307966720,31
599618634315652224,33
599618634323337600,36
599618634331023104,31
599618634338708480,31
599618634346393984,33
599618634354079360,33
599618634361764864,-4
599618634369450368,-89
599618634377135744,-99
599618634384821248,140
599618634392506624,522
599618634400192128,630
599618634407877504,265
599618634415563008,-118
599618634423248512,-130
599618634430933888,-29
599618634438619392,-12
599618634446304768,19
599618634453990272,43
599618634461675659,19
599618634469361536,21
599618634477047424,43
599618634484733312,38
599618634492419200,33
599618634500104960,43
599618634507790848,45
599618634515476736,45
599618634523162624,45
599618634530848512,48
599618634538534400,53
599618634546220160,55
599618634553906048,60
599618634561591936,62
599618634569277824,65
599618634576963712,67
599618634584649600,74
599618634592335360,77
599618634600021248,82
599618634607707136,89
599618634615393024,94
599618634623078912,96
599618634630764800,99
599618634638450688,101
599618634646136448,101
599618634653822336,94
599618634661508224,84
599618634669194112,67
599618634676880000,43
599618634684565888,24
599618634692251648,12
599618634699937536,0
599618634707623424,-7
599618634715309312,-9
599618634722995200,-12
599618634730681088,-7
599618634738366848,0
599618634746052736,-2
599618634753738624,-7
599618634761424512,-2
599618634769110400,2
599618634776796288,2
599618634784482176,4
599618634792167936,9
599618634799853824,12
599618634807539712,9
599618634815225600,12
599618634822911488,16
599618634830597376,16
599618634838283136,16
599618634845969024,14
599618634853654912,14
599618634861340800,24
599618634869026688,24
599618634876712576,21
599618634884398336,24
599618634892084224,26
599618634899770112,26
599618634907456000,29
599618634915141888,26
599618634922827776,24
599618634930513536,29
599618634938199424,29
599618634945885312,29
599618634953571200,26
599618634961257088,29
599618634968942976,31
599618634976628864,31
599618634984314624,26
599618634992000512,26
599618634999686400,29
599618635007372288,31
599618635015058176,29
599618635022744002,26
599618635030429952,31
599618635038115840,33
599618635045801728,29
599618635053487616,29
599618635061173376,33
599618635068859264,33
599618635076545152,31
599618635084231040,31
599618635091916928,33
599618635099602816,33
599618635107288576,36
599618635114974464,36
599618635122660352,31
599618635130346240,31
599618635138032128,36
599618635145718016,38
599618635153403776,33
599618635161089664,33
599618635168775552,36
599618635176461440,36
599618635184147328,36
599618635191833216,36
599618635199519104,38
599618635207204864,41
599618635214890752,41
599618635222576640,36
599618635230262528,38
599618635237948416,38
599618635245634304,36
599618635253320064,41
599618635261005952,41
599618635268691840,38
599618635276377728,33
599618635284063616,36
599618635291749504,53
599618635299435264,70
599618635307121152,70
599618635314807040,65
599618635322492928,58
599618635330178816,43
599618635337864704,26
599618635345550592,29
599618635353236352,38
599618635360922240,36
599618635368608128,33
599618635376294016,36
599618635383979904,38
599618635391665792,38
599618635399351552,36
599618635407037440,4
599618635414723328,-72
599618635422409216,-99
599618635430095104,96
599618635437780992,456
599618635445466752,596
599618635453152640,280
599618635460838528,-99
599618635468524416,-132
599618635476210304,-29
599618635483896192,-9
599618635491581952,14
599618635499267840,43
599618635506953728,24
599618635514639616,21
599618635522325504,33
599618635530011392,33
599618635537697280,36
599618635545383040,41
599618635553068928,43
599618635560754816,45
599618635568440704,45
599618635576126592,45
599618635583812345,50
599618635591498240,55
599618635599184128,55
599618635606870016,58
599618635614555904,60
599618635622241664,65
599618635629927552,72
599618635637613440,72
599618635645299328,74
599618635652985216,82
599618635660671104,89
599618635668356864,91
599618635676042752,96
599618635683728640,94
599618635691414528,87
599618635699100416,89
599618635706786304,79
599618635714472064,60
599618635722157952,43
599618635729843840,24
599618635737529728,7
599618635745215616,2
599618635752901504,-9
599618635760587392,-12
599618635768273152,-9
599618635775959040,-12
599618635783644928,-9
599618635791330816,-4
599618635799016704,-7
599618635806702592,-4
599618635814388352,0
599618635822074240,0
599618635829760128,2
599618635837446016,2
599618635845131904,4
599618635852817792,7
599618635860503552,9
599618635868189440,12
599618635875875328,16
599618635883561216,16
599618635891247104,16
599618635898932992,19
599618635906618880,24
599618635914304640,24
599618635921990528,21
599618635929676416,24
599618635937362304,26
599618635945048192,26
599618635952734080,26
599618635960419840,29
599618635968105728,26
599618635975791616,24
599618635983477504,26
599618635991163392,29
599618635998849280,29
599618636006535040,31
599618636014220928,29
599618636021906816,26
599618636029592704,26
599618636037278592,31
599618636044964480,29
599618636052650240,24
599618636060336128,24
599618636068022016,29
599618636075707904,29
599618636083393792,26
599618636091079680,29
599618636098765568,31
599618636106451328,26
599618636114137216,29
599618636121823104,31
599618636129508992,29
599618636137194880,31
599618636144880688,31
599618636152566144,31
599618636160251648,31
599618636167937024,33
599618636175622528,33
599618636183307904,29
599618636190993408,31
599618636198678784,33
599618636206364288,31
599618636214049792,33
599618636221735168,33
599618636229420672,31
599618636237106048,36
599618636244791552,36
599618636252476928,31
599618636260162432,31
599618636267847936,36
599618636275533312,38
599618636283218816,33
599618636290904192,31
599618636298589696,31
599618636306275200,31
599618636313960576,38
599618636321646080,58
599618636329331456,67
599618636337016960,62
599618636344702336,53
599618636352387840,43
599618636360073344,31
599618636367758720,21
599618636375444224,26
599618636383129600,36
599618636390815104,31
599618636398500480,29
599618636406185984,33
599618636413871488,36
599618636421556864,33
599618636429242368,24
599618636436927744,-24
599618636444613248,-96
599618636452298624,-43
599618636459984128,244
599618636467669632,541
599618636475355008,471
599618636483040512,70
599618636490725888,-149
599618636498411392,-67
599618636506096768,-7
599618636513782272,-2
599618636521467776,36
599618636529153152,38
599618636536838656,19
599618636544524032,29
599618636552209536,38
599618636559894912,31
599618636567580416,33
599618636575265920,43
599618636582951296,43
599618636590636800,45
599618636598322176,53
599618636606007680,55
599618636613693184,53
599618636621378560,55
599618636629064064,62
599618636636749440,60
599618636644434944,65
599618636652120320,72
599618636659805824,74
599618636667491328,77
599618636675176704,84
599618636682862208,89
599618636690547584,94
599618636698233088,96
599618636705918513,96
599618636713604352,99
599618636721290240,96
599618636728976128,91
599618636736662016,82
599618636744347776,58
599618636752033664,31
599618636759719552,19
599618636767405440,12
599618636775091328,4
599618636782777216,-4
599618636790462976,-9
599618636798148864,-9
599618636805834752,-2
599618636813520640,-2
599618636821206528,0
599618636828892416,0
599618636836578176,2
599618636844264064,2
599618636851949952,4
599618636859635840,7
599618636867321728,7
599618636875007616,7
599618636882693504,9
599618636890379264,14
599618636898065152,19
599618636905751040,19
599618636913436928,19
599618636921122816,21
599618636928808704,24
599618636936494464,26
599618636944180352,29
599618636951866240,26
599618636959552128,26
599618636967238016,29
599618636974923904,31
599618636982609664,29
599618636990295552,29
599618636997981440,31
599618637005667328,26
599618637013353216,24
599618637021039104,31
599618637028724992,29
599618637036410752,29
599618637044096640,31
599618637051782528,29
599618637059468416,26
599618637067154304,33
599618637074840192,29
599618637082525952,26
599618637090211840,33
599618637097897728,33
599618637105583616,31
599618637113269504,29
599618637120955392,29
599618637128641152,31
599618637136327040,33
599618637144012928,31
599618637151698816,29
599618637159384704,31
599618637167070592,31
599618637174756352,33
599618637182442240,31
599618637190128128,29
599618637197814016,33
599618637205499904,33
599618637213185792,29
599618637220871680,31
599618637228557440,33
599618637236243328,33
599618637243929216,31
599618637251615104,29
599618637259300992,36
599618637266986856,36
599618637274672768,29
599618637282358656,29
599618637290044544,33
599618637297730432,41
599618637305416192,36
599618637313102080,31
599618637320787968,33
599618637328473856,36
599618637336159744,38
599618637343845632,38
599618637351531392,31
599618637359217280,33
599618637366903168,41
599618637374589056,41
599618637382274944,33
599618637389960832,36
599618637397646592,50
599618637405332480,65
599618637413018368,70
599618637420704256,65
599618637428390144,53
599618637436076032,41
599618637443761920,31
599618637451447680,31
599618637459133568,36
599618637466819456,36
599618637474505344,33
599618637482191232,33
599618637489877120,36
599618637497562880,36
599618637505248768,33
599618637512934656,7
599618637520620544,-55
599618637528306432,-82
599618637535992320,84
599618637543678080,406
599618637551363968,529
599618637559049856,256
599618637566735744,-74
599618637574421632,-106
599618637582107520,-16
599618637589793408,2
599618637597479168,29
599618637605165056,53
599618637612850944,31
599618637620536832,24
599618637628222720,43
599618637635908608,45
599618637643594368,38
599618637651280256,41
599618637658966144,45
599618637666652032,50
599618637674337920,55
599618637682023808,50
599618637689709568,50
599618637697395456,60
599618637705081344,65
599618637712767232,65
599618637720453120,65
599618637728139008,70
599618637735824896,74
599618637743510656,79
599618637751196544,84
599618637758882432,89
599618637766568320,94
599618637774254208,96
599618637781940096,99
599618637789625856,99
599618637797311744,99
599618637804997632,94
599618637812683520,82
599618637820369408,70
599618637828055203,50
599618637835741056,33
599618637843426944,19
599618637851112832,9
599618637858798720,4
599618637866484480,-2
599618637874170368,-7
599618637881856256,2
599618637889542144,4
599618637897228032,-4
599618637904913920,-2
599618637912599680,9
599618637920285568,12
599618637927971456,9
599618637935657344,12
599618637943343232,12
599618637951029120,14
599618637958714880,19
599618637966400768,16
599618637974086656,16
599618637981772544,24
599618637989458432,24
599618637997144320,24
599618638004830208,29
599618638012515968,31
599618638020201856,31
599618638027887744,33
599618638035573632,36
599618638043259520,36
599618638050945408,41
599618638058631168,41
599618638066317056,36
599618638074002944,36
599618638081688832,41
599618638089374720,38
599618638097060608,31
599618638104746368,38
599618638112432256,38
599618638120118144,33
599618638127804032,36
599618638135489920,38
599618638143175808,38
599618638150861696,43
599618638158547456,41
599618638166233344,36
599618638173919232,41
599618638181605120,45
599618638189291008,38
599618638196976896,38
599618638204662656,45
599618638212348544,43
599618638220034432,43
599618638227720320,45
599618638235406208,41
599618638243092096,38
599618638250777856,45
599618638258463744,43
599618638266149632,43
599618638273835520,45
599618638281521408,45
599618638289207296,45
599618638296893056,45
599618638304578944,43
599618638312264832,45
599618638319950720,43
599618638327636608,41
599618638335322496,48
599618638343008384,48
599618638350694144,41
599618638358380032,45
599618638366065920,48
599618638373751808,43
599618638381437696,43
599618638389123546,48
599618638396809216,50
599618638404494848,43
599618638412180480,41
599618638419866240,45
599618638427551872,45
599618638435237504,45
599618638442923136,45
599618638450608768,45
599618638458294528,45
599618638465980160,45
599618638473665792,48
599618638481351424,48
599618638489037184,45
599618638496722816,45
599618638504408448,48
599618638512094080,50
599618638519779712,45
599618638527465472,48
599618638535151104,67
599618638542836736,82
599618638550522368,79
599618638558208000,70
599618638565893760,58
599618638573579392,45
599618638581265024,43
599618638588950656,43
599618638596636288,45
599618638604322048,48
599618638612007680,50
599618638619693312,43
599618638627378944,43
599618638635064576,48
599618638642750336,41
599618638650435968,-9
599618638658121600,-79
599618638665807232,-29
599618638673492992,246
599618638681178624,541
599618638688864256,476
599618638696549888,89
599618638704235520,-128
599618638711921280,-58
599618638719606912,0
599618638727292544,12
599618638734978176,50
599618638742663808,45
599618638750349568,29
599618638758035200,45
599618638765720832,50
599618638773406464,43
599618638781092096,50
599618638788777856,58
599618638796463488,55
599618638804149120,58
599618638811834752,60
599618638819520384,60
599618638827206144,62
599618638834891776,67
599618638842577408,70
599618638850263040,72
599618638857948800,77
599618638865634432,82
599618638873320064,87
599618638881005696,89
599618638888691328,94
599618638896377088,103
599618638904062720,106
599618638911748352,108
599618638919433984,118
599618638927119616,118
599618638934805376,108
599618638942491008,103
599618638950176632,96
599618638957862272,79
599618638965547904,58
599618638973233536,38
599618638980919296,21
599618638988604928,14
599618638996290560,9
599618639003976192,2
599618639011661824,0
599618639019347584,7
599618639027033216,12
599618639034718848,12
599618639042404480,14
599618639050090112,16
599618639057775872,14
599618639065461504,14
599618639073147136,19
599618639080832768,19
599618639088518528,19
599618639096204160,24
599618639103889792,26
599618639111575424,26
599618639119261056,29
599618639126946816,33
599618639134632448,36
599618639142318080,33
599618639150003712,33
599618639157689344,41
599618639165375104,38
599618639173060736,36
599618639180746368,41
599618639188432000,43
599618639196117632,38
599618639203803392,41
599618639211489024,41
599618639219174656,38
599618639226860288,36
599618639234545920,38
599618639242231680,38
599618639249917312,38
599618639257602944,38
599618639265288576,38
599618639272974336,33
599618639280659968,36
599618639288345600,38
599618639296031232,41
599618639303716864,38
599618639311402624,36
599618639319088256,41
599618639326773888,43
599618639334459520,41
599618639342145152,38
599618639349830912,41
599618639357516544,41
599618639365202176,38
599618639372887808,41
599618639380573440,41
599618639388259200,38
599618639395944832,41
599618639403630464,43
599618639411316096,43
599618639419001728,43
599618639426687488,41
599618639434373120,41
599618639442058752,43
599618639449744384,43
599618639457430144,41
599618639465115776,43
599618639472801408,48
599618639480487040,43
599618639488172672,41
599618639495858432,43
599618639503544064,43
599618639511229714,43
599618639518915584,43
599618639526601472,41
599618639534287360,43
599618639541973248,50
599618639549659008,45
599618639557344896,43
599618639565030784,43
599618639572716672,45
599618639580402560,48
599618639588088448,43
599618639595774208,38
599618639603460096,45
599618639611145984,50
599618639618831872,45
599618639626517760,43
599618639634203648,48
599618639641889408,45
599618639649575296,38
599618639657261184,48
599618639664947072,70
599618639672632960,77
599618639680318848,74
599618639688004736,70
599618639695690496,60
599618639703376384,45
599618639711062272,36
599618639718748160,38
599618639726434048,43
599618639734119936,45
599618639741805696,43
599618639749491584,41
599618639757177472,43
599618639764863360,43
599618639772549248,29
599618639780235136,-29
599618639787920896,-106
599618639795606784,-33
599618639803292672,299
599618639810978560,642
599618639818664448,560
599618639826350336,106
599618639834036224,-145
599618639841721984,-65
599618639849407872,-4
599618639857093760,4
599618639864779648,41
599618639872465536,36
599618639880151424,16
599618639887837184,31
599618639895523072,43
599618639903208960,36
599618639910894848,38
599618639918580736,45
599618639926266624,48
599618639933952384,48
599618639941638272,53
599618639949324160,55
599618639957010048,55
599618639964695936,58
599618639972381824,65
599618639980067584,67
599618639987753472,67
599618639995439360,72
599618640003125248,79
599618640010811136,82
599618640018497024,87
599618640026182912,94
599618640033868672,99
599618640041554560,99
599618640049240448,101
599618640056926336,103
599618640064612224,103
599618640072298057,99
599618640079984000,91
599618640087669888,74
599618640095355776,53
599618640103041664,33
599618640110727424,14
599618640118413312,7
599618640126099200,4
599618640133785088,-2
599618640141470976,-4
599618640149156864,-7
599618640156842624,-4
599618640164528512,0
599618640172214400,0
599618640179900288,0
599618640187586176,4
599618640195272064,7
599618640202957824,4
599618640210643712,12
599618640218329600,19
599618640226015488,16
599618640233701376,16
599618640241387264,24
599618640249073152,29
599618640256758912,29
599618640264444800,29
599618640272130688,33
599618640279816576,33
599618640287502464,31
599618640295188352,33
599618640302874112,38
599618640310560000,36
599618640318245888,36
599618640325931776,38
599618640333617664,41
599618640341303552,38
599618640348989312,38
599618640356675200,38
599618640364361088,36
599618640372046976,38
599618640379732864,38
599618640387418752,33
599618640395104640,33
599618640402790400,41
599618640410476288,38
599618640418162176,33
599618640425848064,36
599618640433533952,36
599618640441219840,38
599618640448905600,38
599618640456591488,38
599618640464277376,38
599618640471963264,38
599618640479649152,36
599618640487335040,36
599618640495020800,41
599618640502706688,43
599618640510392576,41
599618640518078464,41
599618640525764352,41
599618640533450240,41
599618640541136000,43
599618640548821888,43
599618640556507776,41
599618640564193664,38
599618640571879552,41
599618640579565440,43
599618640587251328,41
599618640594937088,41
599618640602622976,45
599618640610308864,43
599618640617994752,36
599618640625680640,38
599618640633366400,45
599618640641052288,43
599618640648738176,41
599618640656424064,43
599618640664109952,45
599618640671795712,41
599618640679481600,38
599618640687167488,43
599618640694853376,41
599618640702539264,41
599618640710225152,41
599618640717910912,43
599618640725596800,41
599618640733282688,43
599618640740968576,48
599618640748654464,50
599618640756340352,45
599618640764026112,43
599618640771712000,58
599618640779397888,82
599618640787083776,87
599618640794769664,77
599618640802455552,67
599618640810141440,55
599618640817827200,38
599618640825513088,38
599618640833198976,45
599618640840884864,45
599618640848570752,43
599618640856256640,43
599618640863942400,45
599618640871628288,45
599618640879314176,41
599618640887000064,0
599618640894685952,-94
599618640902371840,-106
599618640910057600,154
599618640917743488,596
599618640925429376,756
599618640933115264,364
599618640940801152,-94
599618640948487040,-132
599618640956172928,-14
599618640963858688,-2
599618640971544576,16
599618640979230464,36
599618640986916352,14
599618640994602240,16
599618641002288128,36
599618641009973888,33
599618641017659776,31
599618641025345664,38
599618641033031552,41
599618641040717440,43
599618641048403328,50
599618641056089088,53
599618641063774976,53
599618641071460864,53
599618641079146752,55
599618641086832640,58
599618641094518528,65
599618641102204416,67
599618641109890176,70
599618641117576064,70
599618641125261952,74
599618641132947840,79
599618641140633728,87
599618641148319616,91
599618641156005376,94
599618641163691264,96
599618641171377152,96
599618641179063040,96
599618641186748928,91
599618641194434747,79
599618641202120576,60
599618641209806464,41
599618641217492352,24
599618641225178240,7
599618641232864000,0
599618641240549888,-4
599618641248235776,-7
599618641255921664,-7
599618641263607552,-7
599618641271293440,-7
599618641278979200,-4
599618641286665088,-2
599618641294350976,-2
599618641302036864,2
599618641309722752,2
599618641317408640,4
599618641325094400,7
599618641332780288,7
599618641340466176,9
599618641348152064,14
599618641355837952,14
599618641363523840,16
599618641371209728,24
599618641378895488,24
599618641386581376,21
599618641394267264,24
599618641401953152,26
599618641409639040,26
599618641417324928,29
599618641425010688,31
599618641432696576,29
599618641440382464,26
599618641448068352,26
599618641455754240,29
599618641463440128,31
599618641471125888,29
599618641478811776,29
599618641486497664,29
599618641494183552,31
599618641501869440,31
599618641509555328,29
599618641517241216,29
599618641524926976,31
599618641532612864,31
599618641540298752,33
599618641547984640,31
599618641555670528,31
599618641563356416,33
599618641571042176,33
599618641578728064,33
599618641586413952,31
599618641594099840,31
599618641601785728,33
599618641609471616,33
599618641617157376,31
599618641624843264,31
599618641632529152,33
599618641640215040,33
599618641647900928,36
599618641655586816,36
599618641663272576,36
599618641670958464,36
599618641678644352,36
599618641686330240,36
599618641694016128,36
599618641701702016,38
599618641709387904,36
599618641717073664,36
599618641724759552,36
599618641732445440,36
599618641740131328,33
599618641747817216,36
599618641755503090,38
599618641763188992,38
599618641770874880,36
599618641778560768,36
599618641786246656,36
599618641793932416,38
599618641801618304,38
599618641809304192,36
599618641816990080,36
599618641824675968,38
599618641832361856,38
599618641840047616,38
599618641847733504,33
599618641855419392,29
599618641863105280,38
599618641870791168,62
599618641878477056,77
599618641886162816,72
599618641893848704,62
599618641901534592,50
599618641909220480,31
599618641916906368,26
599618641924592256,33
599618641932278144,36
599618641939963904,31
599618641947649792,31
599618641955335680,33
599618641963021568,33
599618641970707456,31
599618641978393344,7
599618641986079104,-87
599618641993764992,-149
599618642001450880,41
599618642009136768,493
599618642016822656,807
599618642024508544,560
599618642032194304,9
599618642039880192,-183
599618642047566080,-55
599618642055251968,-4
599618642062937856,-2
599618642070623744,16
599618642078309632,4
599618642085995392,-2
599618642093681280,16
599618642101367168,21
599618642109053056,16
599618642116738944,24
599618642124424832,29
599618642132110592,29
599618642139796480,33
599618642147482368,38
599618642155168256,38
599618642162854144,43
599618642170540032,45
599618642178225792,48
599618642185911680,50
599618642193597568,55
599618642201283456,60
599618642208969344,62
599618642216655232,65
599618642224340992,70
599618642232026880,74
599618642239712768,82
599618642247398656,84
599618642255084544,87
599618642262770432,89
599618642270456320,87
599618642278142080,84
599618642285827968,77
599618642293513856,62
599618642301199744,41
599618642308885632,21
599618642316571433,7
599618642324257280,-4
599618642331943168,-12
599618642339629056,-12
599618642347314944,-14
599618642355000704,-12
599618642362686592,-12
599618642370372480,-12
599618642378058368,-9
599618642385744256,-7
599618642393430144,-4
599618642401115904,-2
599618642408801792,-2
599618642416487680,-2
599618642424173568,0
599618642431859456,4
599618642439545344,7
599618642447231104,7
599618642454916992,9
599618642462602880,14
599618642470288768,16
599618642477974656,19
599618642485660544,19
599618642493346432,19
599618642501032192,19
599618642508718080,21
599618642516403968,24
599618642524089856,24
599618642531775744,24
599618642539461632,24
599618642547147392,24
599618642554833280,21
599618642562519168,21
599618642570205056,24
599618642577890944,26
599618642585576832,26
599618642593262592,24
599618642600948480,24
599618642608634368,24
599618642616320256,24
599618642624006144,26
599618642631692032,26
599618642639377920,26
599618642647063680,29
599618642654749568,26
599618642662435456,26
599618642670121344,26
599618642677807232,29
599618642685493120,29
599618642693178880,26
599618642700864768,29
599618642708550656,31
599618642716236544,31
599618642723922432,29
599618642731608320,29
599618642739294080,33
599618642746979968,33
599618642754665856,29
599618642762351744,31
599618642770037632,33
599618642777723520,31
599618642785409280,31
599618642793095168,33
599618642800781056,33
599618642808466944,31
599618642816152832,31
599618642823838720,33
599618642831524608,33
599618642839210368,33
599618642846896256,31
599618642854582144,36
599618642862268032,36
599618642869953920,33
599618642877639776,36
599618642885325312,36
599618642893010816,33
599618642900696192,33
599618642908381696,36
599618642916067072,29
599618642923752576,21
599618642931437952,41
599618642939123456,70
599618642946808960,77
599618642954494336,70
599618642962179840,60
599618642969865216,41
599618642977550720,24
599618642985236096,29
599618642992921600,38
599618643000607104,31
599618643008292480,29
599618643015977984,33
599618643023663360,36
599618643031348864,33
599618643039034368,26
599618643046719744,-31
599618643054405248,-140
599618643062090624,-113
599618643069776128,232
599618643077461504,720
599618643085147008,833
599618643092832512,357
599618643100517888,-132
599618643108203392,-149
599618643115888768,-21
599618643123574272,-2
599618643131259648,4
599618643138945152,4
599618643146630656,-7
599618643154316032,2
599618643162001536,14
599618643169686912,14
599618643177372416,16
599618643185057792,21
599618643192743296,24
599618643200428800,26
599618643208114176,31
599618643215799680,33
599618643223485056,38
599618643231170560,41
599618643238855936,41
599618643246541440,43
599618643254226944,50
599618643261912320,53
599618643269597824,55
599618643277283200,62
599618643284968704,65
599618643292654080,65
599618643300339584,70
599618643308025088,77
599618643315710464,79
599618643323395968,82
599618643331081344,82
599618643338766848,79
599618643346452352,74
599618643354137728,65
599618643361823232,48
599618643369508608,24
599618643377194112,9
599618643384879488,0
599618643392564992,-9
599618643400250496,-14
599618643407935872,-16
599618643415621376,-19
599618643423306752,-16
599618643430992256,-14
599618643438677601,-14
599618643446363520,-12
599618643454049408,-7
599618643461735296,-4
599618643469421184,-4
599618643477106944,-2
599618643484792832,0
599618643492478720,2
599618643500164608,4
599618643507850496,7
599618643515536384,9
599618643523222144,12
599618643530908032,14
599618643538593920,16
599618643546279808,16
599618643553965696,16
599618643561651584,16
599618643569337344,19
599618643577023232,21
599618643584709120,21
599618643592395008,19
599618643600080896,21
599618643607766784,19
599618643615452672,19
599618643623138432,21
599618643630824320,21
599618643638510208,19
599618643646196096,19
599618643653881984,19
599618643661567872,24
599618643669253632,24
599618643676939520,26
599618643684625408,26
599618643692311296,24
599618643699997184,26
599618643707683072,26
599618643715368832,26
599618643723054720,29
599618643730740608,26
599618643738426496,26
599618643746112384,26
599618643753798272,29
599618643761484160,29
599618643769169920,29
599618643776855808,29
599618643784541696,29
599618643792227584,31
599618643799913472,31
599618643807599360,31
599618643815285120,31
599618643822971008,31
599618643830656896,33
599618643838342784,33
599618643846028672,31
599618643853714560,31
599618643861400320,33
599618643869086208,33
599618643876772096,33
599618643884457984,33
599618643892143872,31
599618643899829760,31
599618643907515520,36
599618643915201408,36
599618643922887296,33
599618643930573184,33
599618643938259072,31
599618643945944960,19
599618643953630848,29
599618643961316608,58
599618643969002496,77
599618643976688384,74
599618643984374272,62
599618643992060160,50
599618643999745944,29
599618644007431808,19
599618644015117696,31
599618644022803584,33
599618644030489472,26
599618644038175232,29
599618644045861120,33
599618644053547008,33
599618644061232896,29
599618644068918784,0
599618644076604672,-99
599618644084290432,-161
599618644091976320,58
599618644099662208,548
599618644107348096,882
599618644115033984,613
599618644122719872,16
599618644130405632,-212
599618644138091520,-87
599618644145777408,-7
599618644153463296,7
599618644161149184,12
599618644168835072,-7
599618644176520960,-2
599618644184206720,14
599618644191892608,14
599618644199578496,16
599618644207264384,24
599618644214950272,29
599618644222636160,29
599618644230321920,33
599618644238007808,38
599618644245693696,41
599618644253379584,43
599618644261065472,48
599618644268751360,50
599618644276437120,55
599618644284123008,60
599618644291808896,65
599618644299494784,67
599618644307180672,70
599618644314866560,77
599618644322552448,82
599618644330238208,89
599618644337924096,91
599618644345609984,91
599618644353295872,96
599618644360981760,94
599618644368667648,87
599618644376353408,77
599618644384039296,60
599618644391725184,36
599618644399411072,14
599618644407096960,2
599618644414782848,-7
599618644422468608,-14
599618644430154496,-16
599618644437840384,-19
599618644445526272,-21
599618644453212160,-21
599618644460898048,-16
599618644468583936,-16
599618644476269696,-14
599618644483955584,-9
599618644491641472,-7
599618644499327360,-7
599618644507013248,-4
599618644514699136,0
599618644522384896,2
599618644530070784,7
599618644537756672,7
599618644545442560,7
599618644553128448,12
599618644560814291,19
599618644568500224,19
599618644576186112,21
599618644583872000,24
599618644591557888,24
599618644599243648,21
599618644606929536,21
599618644614615424,21
599618644622301312,21
599618644629987200,24
599618644637673088,24
599618644645358848,19
599618644653044736,19
599618644660730624,21
599618644668416512,21
599618644676102400,21
599618644683788288,24
599618644691474048,26
599618644699159936,24
599618644706845824,24
599618644714531712,26
599618644722217600,24
599618644729903488,26
599618644737589376,29
599618644745275136,31
599618644752961024,31
599618644760646912,31
599618644768332800,31
599618644776018688,33
599618644783704576,33
599618644791390336,33
599618644799076224,33
599618644806762112,36
599618644814448000,36
599618644822133888,36
599618644829819776,36
599618644837505536,38
599618644845191424,38
599618644852877312,36
599618644860563200,38
599618644868249088,38
599618644875934976,38
599618644883620864,38
599618644891306624,36
599618644898992512,38
599618644906678400,38
599618644914364288,33
599618644922050176,24
599618644929736064,29
599618644937421824,55
599618644945107712,79
599618644952793600,79
599618644960479488,72
599618644968165376,58
599618644975851264,33
599618644983537024,21
599618644991222912,33
599618644998908800,36
599618645006594688,31
599618645014280576,33
599618645021966464,36
599618645029652224,36
599618645037338112,33
599618645045024000,4
599618645052709888,-94
599618645060395776,-164
599618645068081664,48
599618645075767552,543
599618645083453312,894
599618645091139200,635
599618645098825088,29
599618645106510976,-227
599618645114196864,-106
599618645121882634,-4
599618645129568512,19
599618645137254400,14
599618645144940288,-4
599618645152626176,2
599618645160311936,16
599618645167997824,16
599618645175683712,21
599618645183369600,26
599618645191055488,31
599618645198741376,33
599618645206427136,38
599618645214113024,43
599618645221798912,45
599618645229484800,48
599618645237170688,55
599618645244856576,58
599618645252542336,60
599618645260228224,65
599618645267914112,70
599618645275600000,74
599618645283285888,79
599618645290971776,84
599618645298657664,89
599618645306343424,94
599618645314029312,96
599618645321715200,101
599618645329401088,101
599618645337086976,99
599618645344772864,91
599618645352458624,77
599618645360144512,60
599618645367830400,38
599618645375516288,19
599618645383202176,7
599618645390888064,-2
599618645398573824,-9
599618645406259712,-12
599618645413945600,-14
599618645421631488,-14
599618645429317376,-12
599618645437003264,-7
599618645444689152,-4
599618645452374912,-4
599618645460060800,-2
599618645467746688,2
599618645475432576,4
599618645483118464,4
599618645490804352,9
599618645498490112,12
599618645506176000,12
599618645513861888,14
599618645521547776,16
599618645529233664,16
599618645536919552,19
599618645544605312,19
599618645552291200,19
599618645559977088,21
599618645567662976,24
599618645575348864,24
599618645583034752,24
599618645590720512,26
599618645598406400,26
599618645606092288,26
599618645613778176,26
599618645621464064,26
599618645629149952,24
599618645636835840,26
599618645644521600,29
599618645652207488,26
599618645659893376,26
599618645667579264,26
599618645675265152,29
599618645682950977,29
599618645690636928,29
599618645698322816,29
599618645706008704,31
599618645713694592,31
599618645721380352,29
599618645729066240,31
599618645736752128,33
599618645744438016,31
599618645752123904,31
599618645759809792,31
599618645767495552,36
599618645775181440,33
599618645782867328,33
599618645790553216,33
599618645798239104,33
599618645805924992,36
599618645813610752,38
599618645821296640,36
599618645828982528,36
599618645836668416,36
599618645844354304,33
599618645852040192,24
599618645859726080,24
599618645867411840,48
599618645875097728,77
599618645882783616,82
599618645890469504,72
599618645898155392,62
599618645905841280,38
599618645913527040,21
599618645921212928,31
599618645928898816,36
599618645936584704,31
599618645944270592,29
599618645951956480,31
599618645959642240,31
599618645967328128,31
599618645975014016,16
599618645982699904,-65
599618645990385792,-164
599618645998071680,-41
599618646005757568,408
599618646013443328,855
599618646021129216,771
599618646028815104,174
599618646036500992,-229
599618646044186880,-169
599618646051872768,-31
599618646059558528,12
599618646067244416,21
599618646074930304,2
599618646082616192,2
599618646090302080,19
599618646097987968,19
599618646105673728,19
599618646113359616,29
599618646121045504,36
599618646128731392,36
599618646136417280,41
599618646144103168,45
599618646151788928,50
599618646159474816,55
599618646167160704,58
599618646174846592,60
599618646182532480,67
599618646190218368,72
599618646197904256,74
599618646205590016,79
599618646213275904,87
599618646220961792,91
599618646228647680,94
599618646236333568,99
599618646244019320,103
599618646251704832,106
599618646259390336,106
599618646267075712,103
599618646274761216,99
599618646282446592,87
599618646290132096,67
599618646297817472,45
599618646305502976,21
599618646313188480,7
599618646320873856,-2
599618646328559360,-9
599618646336244736,-14
599618646343930240,-14
599618646351615616,-12
599618646359301120,-12
599618646366986624,-12
599618646374672000,-7
599618646382357504,-4
599618646390042880,-2
599618646397728384,2
599618646405413888,4
599618646413099264,7
599618646420784768,7
599618646428470144,9
599618646436155648,16
599618646443841024,19
599618646451526528,19
599618646459212032,19
599618646466897408,21
599618646474582912,21
599618646482268288,24
599618646489953792,26
599618646497639168,24
599618646505324672,24
599618646513010176,26
599618646520695552,26
599618646528381056,24
599618646536066432,26
599618646543751936,26
599618646551437312,24
599618646559122816,24
599618646566808320,26
599618646574493696,29
599618646582179200,29
599618646589864576,26
599618646597550080,29
599618646605235456,31
599618646612920960,31
599618646620606464,31
599618646628291840,33
599618646635977344,33
599618646643662720,31
599618646651348224,31
599618646659033600,33
599618646666719104,33
599618646674404608,33
599618646682089984,33
599618646689775488,33
599618646697460864,33
599618646705146368,33
599618646712831872,33
599618646720517248,33
599618646728202752,24
599618646735888128,26
599618646743573632,53
599618646751259008,82
599618646758944512,82
599618646766630016,72
599618646774315392,65
599618646782000896,38
599618646789686272,21
599618646797371776,31
599618646805057145,36
599618646812743040,31
599618646820428928,31
599618646828114816,33
599618646835800704,33
599618646843486464,33
599618646851172352,21
599618646858858240,-58
599618646866544128,-161
599618646874230016,-53
599618646881915904,389
599618646889601664,848
599618646897287552,783
599618646904973440,183
599618646912659328,-234
599618646920345216,-178
599618646928031104,-41
599618646935716864,14
599618646943402752,29
599618646951088640,7
599618646958774528,2
599618646966460416,21
599618646974146304,24
599618646981832192,21
599618646989517952,31
599618646997203840,38
599618647004889728,38
599618647012575616,43
599618647020261504,50
599618647027947392,53
599618647035633152,55
599618647043319040,62
599618647051004928,67
599618647058690816,67
599618647066376704,72
599618647074062592,79
599618647081748352,84
599618647089434240,89
599618647097120128,94
599618647104806016,99
599618647112491904,103
599618647120177792,108
599618647127863680,108
599618647135549440,108
599618647143235328,108
599618647150921216,103
599618647158607104,89
599618647166292992,67
599618647173978880,41
599618647181664640,21
599618647189350528,9
599618647197036416,0
599618647204722304,-7
599618647212408192,-12
599618647220094080,-12
599618647227779840,-9
599618647235465728,-7
599618647243151616,-7
599618647250837504,-4
599618647258523392,2
599618647266209280,4
599618647273895040,4
599618647281580928,7
599618647289266816,14
599618647296952704,16
599618647304638592,19
599618647312324480,21
599618647320010368,26
599618647327696128,29
599618647335382016,31
599618647343067904,29
599618647350753792,29
599618647358439680,31
599618647366125488,31
599618647373811328,29
599618647381497216,31
599618647389183104,31
599618647396868992,31
599618647404554752,31
599618647412240640,31
599618647419926528,31
599618647427612416,31
599618647435298304,31
599618647442984192,33
599618647450669952,31
599618647458355840,29
599618647466041728,33
599618647473727616,36
599618647481413504,36
599618647489099392,33
599618647496785152,31
599618647504471040,31
599618647512156928,31
599618647519842816,26
599618647527528704,36
599618647535214592,70
599618647542900480,87
599618647550586240,77
599618647558272128,72
599618647565958016,55
599618647573643904,31
599618647581329792,29
599618647589015680,38
599618647596701440,36
599618647604387328,31
599618647612073216,33
599618647619759104,36
599618647627444992,33
599618647635130880,36
599618647642816640,12
599618647650502528,-87
599618647658188416,-147
599618647665874304,74
599618647673560192,567
599618647681246080,874
599618647688931968,543
599618647696617728,-89
599618647704303616,-282
599618647711989504,-142
599618647719675392,-72
599618647727361280,4
599618647735047168,65
599618647742732928,21
599618647750418816,9
599618647758104704,41
599618647765790592,38
599618647773476480,33
599618647781162368,48
599618647788848128,50
599618647796534016,48
599618647804219904,53
599618647811905792,60
599618647819591680,62
599618647827277568,67
599618647834963456,74
599618647842649216,79
599618647850335104,82
599618647858020992,87
599618647865706880,96
599618647873392768,101
599618647881078656,111
599618647888764416,116
599618647896450304,120
599618647904136192,125
599618647911822080,130
599618647919507968,132
599618647927193835,132
599618647934879744,128
599618647942565632,113
599618647950251520,87
599618647957937408,53
599618647965623168,21
599618647973309056,2
599618647980994944,-12
599618647988680832,-26
599618647996366720,-33
599618648004052608,-33
599618648011738368,-31
599618648019424256,-31
599618648027110144,-29
599618648034796032,-24
599618648042481920,-21
599618648050167808,-19
599618648057853568,-16
599618648065539456,-12
599618648073225344,-7
599618648080911232,-4
599618648088597120,-4
599618648096283008,0
599618648103968896,4
599618648111654656,4
599618648119340544,7
599618648127026432,9
599618648134712320,12
599618648142398208,9
599618648150084096,9
599618648157769856,12
599618648165455744,12
599618648173141632,12
599618648180827520,12
599618648188513408,12
599618648196199296,12
599618648203885056,14
599618648211570944,12
599618648219256832,12
599618648226942720,14
599618648234628608,16
599618648242314496,14
599618648250000384,9
599618648257686144,12
599618648265372032,9
599618648273057920,4
599618648280743808,21
599618648288429696,55
599618648296115584,65
599618648303801344,53
599618648311487232,45
599618648319173120,26
599618648326859008,7
599618648334544896,12
599618648342230784,16
599618648349916544,12
599618648357602432,12
599618648365288320,14
599618648372974208,16
599618648380660096,16
599618648388345984,14
599618648396031744,-14
599618648403717632,-108
599618648411403520,-164
599618648419089408,62
599618648426775296,541
599618648434461184,797
599618648442147072,430
599618648449832832,-166
599618648457518720,-290
599618648465204608,-135
599618648472890496,-91
599618648480576384,-14
599618648488262178,62
599618648495948032,16
599618648503633920,-2
599618648511319808,33
599618648519005696,33
599618648526691456,24
599618648534377344,36
599618648542063232,41
599618648549749120,41
599618648557435008,45
599618648565120896,48
599618648572806656,53
599618648580492544,60
599618648588178432,62
599618648595864320,67
599618648603550208,72
599618648611236096,79
599618648618921856,84
599618648626607744,91
599618648634293632,99
599618648641979520,103
599618648649665408,111
599618648657351296,118
599618648665037184,120
599618648672722944,120
599618648680408832,116
599618648688094720,111
599618648695780608,99
599618648703466496,70
599618648711152384,36
599618648718838144,12
599618648726524032,-9
599618648734209920,-26
599618648741895808,-33
599618648749581696,-38
599618648757267584,-38
599618648764953344,-38
599618648772639232,-36
599618648780325120,-33
599618648788011008,-29
599618648795696896,-24
599618648803382784,-21
599618648811068672,-19
599618648818754432,-14
599618648826440320,-9
599618648834126208,-7
599618648841812096,-4
599618648849497984,-2
599618648857183872,0
599618648864869632,0
599618648872555520,2
599618648880241408,4
599618648887927296,9
599618648895613184,12
599618648903299072,9
599618648910984832,9
599618648918670720,12
599618648926356608,12
599618648934042496,12
599618648941728384,12
599618648949414272,9
599618648957100032,12
599618648964785920,9
599618648972471808,7
599618648980157696,12
599618648987843584,12
599618648995529472,9
599618649003215360,26
599618649010901120,53
599618649018587008,58
599618649026272896,48
599618649033958784,43
599618649041644672,24
599618649049330521,7
599618649057016448,9
599618649064702336,14
599618649072388224,9
599618649080074112,12
599618649087759872,14
599618649095445760,14
599618649103131648,16
599618649110817536,16
599618649118503424,-4
599618649126189312,-89
599618649133875072,-166
599618649141560960,-2
599618649149246848,444
599618649156932736,768
599618649164618624,502
599618649172304512,-89
599618649179990272,-282
599618649187676160,-132
599618649195362048,-82
599618649203047936,-31
599618649210733824,53
599618649218419712,26
599618649226105600,-2
599618649233791360,29
599618649241477248,36
599618649249163136,24
599618649256849024,36
599618649264534912,43
599618649272220800,38
599618649279906560,45
599618649287592448,53
599618649295278336,53
599618649302964224,58
599618649310650112,65
599618649318336000,67
599618649326021760,70
599618649333707648,77
599618649341393536,82
599618649349079424,89
599618649356765312,96
599618649364451200,103
599618649372137088,108
599618649379822848,108
599618649387508736,116
599618649395194624,118
599618649402880512,118
599618649410566400,111
599618649418252288,94
599618649425938048,65
599618649433623936,33
599618649441309824,9
599618649448995712,-9
599618649456681600,-21
599618649464367488,-29
599618649472053248,-33
599618649479739136,-36
599618649487425024,-33
599618649495110912,-31
599618649502796800,-31
599618649510482688,-31
599618649518168448,-26
599618649525854336,-21
599618649533540224,-19
599618649541226112,-19
599618649548912000,-14
599618649556597888,-9
599618649564283776,-7
599618649571969536,-4
599618649579655424,-2
599618649587341312,-2
599618649595027200,2
599618649602713088,2
599618649610398864,0
599618649618084736,4
599618649625770624,7
599618649633456512,4
599618649641142400,4
599618649648828160,9
599618649656514048,9
599618649664199936,4
599618649671885824,7
599618649679571712,9
599618649687257600,7
599618649694943360,7
599618649702629248,9
599618649710315136,7
599618649718001024,7
599618649725686912,26
599618649733372800,50
599618649741058560,55
599618649748744448,48
599618649756430336,41
599618649764116224,19
599618649771802112,2
599618649779488000,4
599618649787173888,14
599618649794859648,14
599618649802545536,9
599618649810231424,12
599618649817917312,14
599618649825603200,14
599618649833289088,14
599618649840974848,-2
599618649848660736,-84
599618649856346624,-164
599618649864032512,-9
599618649871718400,418
599618649879404288,729
599618649887090048,488
599618649894775936,-62
599618649902461824,-253
599618649910147712,-118
599618649917833600,-62
599618649925519488,-21
599618649933205376,45
599618649940891136,24
599618649948577024,-2
599618649956262912,24
599618649963948800,29
599618649971634688,24
599618649979320576,33
599618649987006336,38
599618649994692224,43
599618650002378112,45
599618650010064000,43
599618650017749888,45
599618650025435776,53
599618650033121536,58
599618650040807424,60
599618650048493312,65
599618650056179200,70
599618650063865088,72
599618650071550976,79
599618650079236736,87
599618650086922624,91
599618650094608512,99
599618650102294400,103
599618650109980288,103
599618650117666176,103
599618650125352064,103
599618650133037824,99
599618650140723712,84
599618650148409600,60
599618650156095488,33
599618650163781376,7
599618650171467207,-9
599618650179152768,-21
599618650186838272,-26
599618650194523648,-29
599618650202209152,-29
599618650209894528,-29
599618650217580032,-26
599618650225265408,-26
599618650232950912,-24
599618650240636416,-19
599618650248321792,-19
599618650256007296,-16
599618650263692672,-7
599618650271378176,-4
599618650279063552,-7
599618650286749056,-4
599618650294434560,-2
599618650302119936,0
599618650309805440,4
599618650317490816,4
599618650325176320,7
599618650332861824,9
599618650340547200,9
599618650348232704,12
599618650355918080,12
599618650363603584,12
599618650371288960,12
599618650378974464,12
599618650386659968,12
599618650394345344,12
599618650402030848,12
599618650409716224,14
599618650417401728,16
599618650425087104,14
599618650432772608,14
599618650440458112,14
599618650448143488,9
599618650455828992,19
599618650463514368,43
599618650471199872,53
599618650478885248,50
599618650486570752,48
599618650494256256,31
599618650501941632,9
599618650509627136,9
599618650517312512,16
599618650524998016,14
599618650532683392,14
599618650540368896,14
599618650548054400,14
599618650555739776,16
599618650563425280,19
599618650571110656,12
599618650578796160,-36
599618650586481536,-128
599618650594167040,-99
599618650601852544,217
599618650609537920,623
599618650617223424,633
599618650624908800,154
599618650632594304,-205
599618650640279808,-152
599618650647965184,-55
599618650655650688,-29
599618650663336064,31
599618650671021568,36
599618650678706944,2
599618650686392448,16
599618650694077952,36
599618650701763328,29
599618650709448832,29
599618650717134208,41
599618650724819712,38
599618650732505032,38
599618650740190976,45
599618650747876864,48
599618650755562752,50
599618650763248640,58
599618650770934400,60
599618650778620288,60
599618650786306176,65
599618650793992064,70
599618650801677952,77
599618650809363840,79
599618650817049600,87
599618650824735488,96
599618650832421376,99
599618650840107264,99
599618650847793152,101
599618650855479040,101
599618650863164800,94
599618650870850688,84
599618650878536576,67
599618650886222464,43
599618650893908352,16
599618650901594240,0
599618650909280128,-9
599618650916965888,-14
599618650924651776,-19
599618650932337664,-21
599618650940023552,-21
599618650947709440,-19
599618650955395328,-14
599618650963081088,-14
599618650970766976,-14
599618650978452864,-9
599618650986138752,-9
599618650993824640,-7
599618651001510528,-4
599618651009196288,0
599618651016882176,0
599618651024568064,0
599618651032253952,4
599618651039939840,9
599618651047625728,9
599618651055311616,12
599618651062997376,14
599618651070683264,14
599618651078369152,14
599618651086055040,14
599618651093740928,14
599618651101426816,16
599618651109112576,16
599618651116798464,19
599618651124484352,16
599618651132170240,14
599618651139856128,19
599618651147542016,19
599618651155227776,16
599618651162913664,16
599618651170599552,19
599618651178285440,21
599618651185971328,19
599618651193657216,19
599618651201343104,21
599618651209028864,21
599618651216714752,19
599618651224400640,24
599618651232086528,24
599618651239772416,24
599618651247458304,24
599618651255144064,26
599618651262829952,26
599618651270515840,24
599618651278201728,26
599618651285887616,24
599618651293573379,21
599618651301259264,38
599618651308945152,62
599618651316631040,62
599618651324316928,55
599618651332002688,50
599618651339688576,36
599618651347374464,19
599618651355060352,16
599618651362746240,24
599618651370432128,21
599618651378117888,21
599618651385803776,21
599618651393489664,24
599618651401175552,24
599618651408861440,24
599618651416547328,14
599618651424233088,-45
599618651431918976,-125
599618651439604864,-36
599618651447290752,319
599618651454976640,657
599618651462662528,526
599618651470348416,33
599618651478034176,-200
599618651485720064,-96
599618651493405952,-31
599618651501091840,-12
599618651508777728,36
599618651516463616,29
599618651524149376,4
599618651531835264,21
599618651539521152,33
599618651547207040,29
599618651554892928,33
599618651562578816,38
599618651570264576,38
599618651577950464,43
599618651585636352,45
599618651593322240,45
599618651601008128,50
599618651608694016,55
599618651616379904,55
599618651624065664,58
599618651631751552,67
599618651639437440,70
599618651647123328,72
599618651654809216,74
599618651662495104,82
599618651670180864,87
599618651677866752,89
599618651685552640,94
599618651693238528,94
599618651700924416,91
599618651708610304,87
599618651716296064,84
599618651723981952,70
599618651731667840,45
599618651739353728,26
599618651747039616,9
599618651754725504,-2
599618651762411264,-7
599618651770097152,-12
599618651777783040,-14
599618651785468928,-9
599618651793154816,-7
599618651800840704,-9
599618651808526592,-9
599618651816212352,-4
599618651823898240,-2
599618651831584128,-2
599618651839270016,0
599618651846955904,2
599618651854641722,2
599618651862327552,2
599618651870013440,7
599618651877699328,7
599618651885385216,9
599618651893070976,14
599618651900756864,16
599618651908442752,12
599618651916128640,14
599618651923814528,16
599618651931500416,16
599618651939186176,19
599618651946872064,19
599618651954557952,19
599618651962243840,21
599618651969929728,21
599618651977615616,21
599618651985301376,21
599618651992987264,19
599618652000673152,19
599618652008359040,21
599618652016044928,24
599618652023730816,21
599618652031416704,19
599618652039102464,24
599618652046788352,26
599618652054474240,24
599618652062160128,21
599618652069846016,26
599618652077531904,26
599618652085217664,24
599618652092903552,26
599618652100589440,29
599618652108275328,26
599618652115961216,24
599618652123647104,26
599618652131332864,26
599618652139018752,26
599618652146704640,26
599618652154390528,31
599618652162076416,31
599618652169762304,29
599618652177448192,29
599618652185133952,29
599618652192819840,29
599618652200505728,31
599618652208191616,31
599618652215877504,31
599618652223563392,29
599618652231249152,26
599618652238935040,29
599618652246620928,31
599618652254306816,31
599618652261992704,31
599618652269678592,26
599618652277364352,29
599618652285050240,33
599618652292736128,29
599618652300422016,19
599618652308107904,36
599618652315793792,60
599618652323479552,62
599618652331165440,58
599618652338851328,50
599618652346537216,38
599618652354223104,24
599618652361908992,21
599618652369594880,24
599618652377280640,26
599618652384966528,26
599618652392652416,26
599618652400338304,29
599618652408024192,29
599618652415710065,24
599618652423395584,0
599618652431081088,-74
599618652438766464,-123
599618652446451968,58
599618652454137344,447
599618652461822848,647
599618652469508224,348
599618652477193728,-94
599618652484879232,-171
599618652492564608,-50
599618652500250112,-21
599618652507935488,-4
599618652515620992,26
599618652523306368,12
599618652530991872,4
599618652538677376,19
599618652546362752,24
599618652554048256,24
599618652561733632,26
599618652569419136,33
599618652577104640,36
599618652584790016,33
599618652592475520,36
599618652600160896,45
599618652607846400,45
599618652615531776,43
599618652623217280,48
599618652630902784,55
599618652638588160,53
599618652646273664,55
599618652653959040,65
599618652661644544,65
599618652669329920,70
599618652677015424,79
599618652684700928,74
599618652692386304,77
599618652700071808,84
599618652707757184,79
599618652715442688,72
599618652723128064,72
599618652730813568,60
599618652738499072,41
599618652746184448,24
599618652753869952,9
599618652761555328,-2
599618652769240832,-9
599618652776926208,-12
599618652784611712,-12
599618652792297216,-12
599618652799982592,-9
599618652807668096,-14
599618652815353472,-12
599618652823038976,-4
599618652830724352,-2
599618652838409856,-4
599618652846095360,-2
599618652853780736,0
599618652861466240,2
599618652869151616,4
599618652876837120,7
599618652884522624,4
599618652892208000,4
599618652899893504,9
599618652907578880,9
599618652915264384,12
599618652922949760,14
599618652930635264,16
599618652938320768,14
599618652946006144,14
599618652953691648,19
599618652961377024,19
599618652969062528,14
599618652976747890,16
599618652984433792,19
599618652992119680,19
599618652999805568,19
599618653007491456,21
599618653015177216,19
599618653022863104,16
599618653030548992,19
599618653038234880,24
599618653045920768,19
599618653053606656,19
599618653061292416,21
599618653068978304,21
599618653076664192,21
599618653084350080,24
599618653092035968,26
599618653099721856,26
599618653107407616,24
599618653115093504,24
599618653122779392,24
599618653130465280,24
599618653138151168,26
599618653145837056,26
599618653153522944,26
599618653161208704,26
599618653168894592,29
599618653176580480,29
599618653184266368,26
599618653191952256,29
599618653199638144,29
599618653207323904,26
599618653215009792,29
599618653222695680,31
599618653230381568,31
599618653238067456,26
599618653245753344,26
599618653253439104,29
599618653261124992,24
599618653268810880,24
599618653276496768,43
599618653284182656,62
599618653291868544,60
599618653299554432,53
599618653307240192,45
599618653314926080,29
599618653322611968,16
599618653330297856,24
599618653337983744,29
599618653345669632,21
599618653353355392,21
599618653361041280,26
599618653368727168,26
599618653376413056,26
599618653384098944,24
599618653391784832,-12
599618653399470592,-91
599618653407156480,-87
599618653414842368,161
599618653422528256,526
599618653430214144,582
599618653437900032,193
599618653445585792,-152
599618653453271680,-123
599618653460957568,-19
599618653468643456,-9
599618653476329344,19
599618653484015232,33
599618653491701120,12
599618653499386880,12
599618653507072768,26
599618653514758656,31
599618653522444544,31
599618653530130432,33
599618653537816233,36
599618653545502080,36
599618653553187968,41
599618653560873856,45
599618653568559744,45
599618653576245504,45
599618653583931392,50
599618653591617280,55
599618653599303168,58
599618653606989056,60
599618653614674944,62
599618653622360704,70
599618653630046592,74
599618653637732480,74
599618653645418368,79
599618653653104256,84
599618653660790144,82
599618653668475904,82
599618653676161792,84
599618653683847680,77
599618653691533568,62
599618653699219456,50
599618653706905344,36
599618653714591232,14
599618653722276992,-2
599618653729962880,-9
599618653737648768,-12
599618653745334656,-14
599618653753020544,-14
599618653760706432,-14
599618653768392192,-14
599618653776078080,-12
599618653783763968,-9
599618653791449856,-12
599618653799135744,-9
599618653806821632,-4
599618653814507392,0
599618653822193280,-2
599618653829879168,-2
599618653837565056,2
599618653845250944,4
599618653852936832,7
599618653860622720,7
599618653868308480,9
599618653875994368,14
599618653883680256,19
599618653891366144,14
599618653899052032,16
599618653906737920,21
599618653914423680,19
599618653922109568,19
599618653929795456,19
599618653937481344,21
599618653945167232,21
599618653952853120,19
599618653960538880,24
599618653968224768,24
599618653975910656,19
599618653983596544,19
599618653991282432,24
599618653998968320,26
599618654006654080,21
599618654014339968,21
599618654022025856,21
599618654029711744,21
599618654037397632,19
599618654045083520,21
599618654052769408,26
599618654060455168,26
599618654068141056,26
599618654075826944,24
599618654083512832,24
599618654091198720,24
599618654098884576,26
599618654106570496,24
599618654114256384,24
599618654121942272,26
599618654129628160,31
599618654137313920,31
599618654144999808,24
599618654152685696,24
599618654160371584,29
599618654168057472,29
599618654175743360,24
599618654183429120,26
599618654191115008,29
599618654198800896,29
599618654206486784,26
599618654214172672,29
599618654221858560,29
599618654229544320,29
599618654237230208,31
599618654244916096,31
599618654252601984,29
599618654260287872,31
599618654267973760,33
599618654275659648,26
599618654283345408,21
599618654291031296,41
599618654298717184,65
599618654306403072,62
599618654314088960,53
599618654321774848,48
599618654329460608,31
599618654337146496,21
599618654344832384,26
599618654352518272,31
599618654360204160,24
599618654367890048,21
599618654375575808,29
599618654383261696,31
599618654390947584,31
599618654398633472,26
599618654406319360,-9
599618654414005248,-84
599618654421691136,-77
599618654429376896,159
599618654437062784,507
599618654444748672,551
599618654452434560,171
599618654460120448,-149
599618654467806336,-113
599618654475492096,-14
599618654483177984,-9
599618654490863872,16
599618654498549760,36
599618654506235648,19
599618654513921536,21
599618654521607296,33
599618654529293184,29
599618654536979072,29
599618654544664960,38
599618654552350848,41
599618654560036736,41
599618654567722624,43
599618654575408384,45
599618654583094272,48
599618654590780160,50
599618654598466048,53
599618654606151936,58
599618654613837824,60
599618654621523584,60
599618654629209472,67
599618654636895360,72
599618654644581248,72
599618654652267136,77
599618654659952923,82
599618654667638528,82
599618654675324160,87
599618654683009664,89
599618654690695296,87
599618654698380928,74
599618654706066432,65
599618654713752064,55
599618654721437696,36
599618654729123200,16
599618654736808832,7
599618654744494464,-4
599618654752179968,-12
599618654759865600,-12
599618654767551232,-12
599618654775236736,-12
599618654782922368,-12
599618654790608000,-9
599618654798293504,-7
599618654805979136,-7
599618654813664768,-4
599618654821350272,-4
599618654829035904,-2
599618654836721536,0
599618654844407040,4
599618654852092672,9
599618654859778304,9
599618654867463808,9
599618654875149440,12
599618654882835072,12
599618654890520576,14
599618654898206208,21
599618654905891840,21
599618654913577344,19
599618654921262976,24
599618654928948608,24
599618654936634112,21
599618654944319744,24
599618654952005376,21
599618654959690880,19
599618654967376512,24
599618654975062144,26
599618654982747648,24
599618654990433280,26
599618654998118912,24
599618655005804416,21
599618655013490048,24
599618655021175680,26
599618655028861184,21
599618655036546816,24
599618655044232448,29
599618655051917952,24
599618655059603584,21
599618655067289216,26
599618655074974720,29
599618655082660352,29
599618655090345984,26
599618655098031488,29
599618655105717120,29
599618655113402752,26
599618655121088256,29
599618655128773888,31
599618655136459520,26
599618655144145024,24
599618655151830656,31
599618655159516288,33
599618655167201792,26
599618655174887424,29
599618655182573056,31
599618655190258560,26
599618655197944192,29
599618655205629696,33
599618655213315328,33
599618655221000922,29
599618655228686720,29
599618655236372480,29
599618655244058240,31
599618655251743872,33
599618655259429632,29
599618655267115392,29
599618655274801152,31
599618655282486784,31
599618655290172544,31
599618655297858304,29
599618655305544064,29
599618655313229696,29
599618655320915456,24
599618655328601216,41
599618655336286976,62
599618655343972608,60
599618655351658368,50
599618655359344128,43
599618655367029888,33
599618655374715520,19
599618655382401280,16
599618655390087040,24
599618655397772800,26
599618655405458432,21
599618655413144192,19
599618655420829952,26
599618655428515712,26
599618655436201344,14
599618655443887104,-26
599618655451572864,-96
599618655459258624,-50
599618655466944256,232
599618655474630016,524
599618655482315776,442
599618655490001536,45
599618655497687168,-164
599618655505372928,-82
599618655513058688,-16
599618655520744448,-2
599618655528430080,36
599618655536115840,31
599618655543801600,9
599618655551487360,26
599618655559172992,33
599618655566858752,26
599618655574544512,36
599618655582230272,38
599618655589915904,36
599618655597601664,45
599618655605287424,45
599618655612973184,45
599618655620658816,48
599618655628344576,48
599618655636030336,50
599618655643716096,60
599618655651401728,67
599618655659087488,62
599618655666773248,62
599618655674459008,74
599618655682144640,79
599618655689830400,79
599618655697516160,87
599618655705201920,89
599618655712887552,87
599618655720573312,87
599618655728259072,84
599618655735944832,79
599618655743630464,67
599618655751316224,48
599618655759001984,31
599618655766687744,16
599618655774373376,2
599618655782059091,-2
599618655789745024,-7
599618655797430912,-9
599618655805116800,-12
599618655812802688,-9
599618655820488448,-7
599618655828174336,-7
599618655835860224,-7
599618655843546112,-4
599618655851232000,-2
599618655858917888,-4
599618655866603648,0
599618655874289536,7
599618655881975424,4
599618655889661312,2
599618655897347200,4
599618655905033088,12
599618655912718848,14
599618655920404736,14
599618655928090624,16
599618655935776512,19
599618655943462400,19
599618655951148288,19
599618655958834176,19
599618655966519936,21
599618655974205824,21
599618655981891712,21
599618655989577600,24
599618655997263488,19
599618656004949376,19
599618656012635136,24
599618656020321024,24
599618656028006912,19
599618656035692800,24
599618656043378688,26
599618656051064576,16
599618656058750336,16
599618656066436224,29
599618656074122112,29
599618656081808000,19
599618656089493888,21
599618656097179776,26
599618656104865664,26
599618656112551424,24
599618656120237312,24
599618656127923200,26
599618656135609088,29
599618656143294976,24
599618656150980864,24
599618656158666624,29
599618656166352512,29
599618656174038400,26
599618656181724288,29
599618656189410176,33
599618656197096064,29
599618656204781824,29
599618656212467712,31
599618656220153600,29
599618656227839488,31
599618656235525376,31
599618656243211264,31
599618656250897024,31
599618656258582912,36
599618656266268800,33
599618656273954688,29
599618656281640576,33
599618656289326464,36
599618656297012352,31
599618656304698112,31
599618656312384000,36
599618656320069888,33
599618656327755776,31
599618656335441664,33
599618656343127434,36
599618656350813312,31
599618656358499200,43
599618656366185088,70
599618656373870976,70
599618656381556736,55
599618656389242624,50
599618656396928512,41
599618656404614400,24
599618656412300288,29
599618656419986176,38
599618656427671936,33
599618656435357824,29
599618656443043712,36
599618656450729600,38
599618656458415488,33
599618656466101376,21
599618656473787136,-31
599618656481473024,-96
599618656489158912,-4
599618656496844800,306
599618656504530688,558
599618656512216576,401
599618656519902464,-9
599618656527588224,-159
599618656535274112,-58
599618656542960000,-9
599618656550645888,9
599618656558331776,53
599618656566017664,38
599618656573703424,21
599618656581389312,41
599618656589075200,45
599618656596761088,38
599618656604446976,43
599618656612132864,53
599618656619818624,50
599618656627504512,48
599618656635190400,55
599618656642876288,60
599618656650562176,58
599618656658248064,60
599618656665933952,67
599618656673619712,70
599618656681305600,70
599618656688991488,77
599618656696677376,79
599618656704363264,79
599618656712049152,89
599618656719734912,99
599618656727420800,99
599618656735106688,96
599618656742792576,101
599618656750478464,103
599618656758164352,99
599618656765850112,89
599618656773536000,79
599618656781221888,60
599618656788907776,41
599618656796593664,26
599618656804279552,12
599618656811965312,2
599618656819651200,0
599618656827337088,-4
599618656835022976,-9
599618656842708864,-7
599618656850394752,0
599618656858080640,0
599618656865766400,-4
599618656873452288,0
599618656881138176,2
599618656888824064,4
599618656896509952,4
599618656904195777,7
599618656911881728,9
599618656919567616,9
599618656927253504,12
599618656934939392,16
599618656942625152,21
599618656950311040,21
599618656957996928,21
599618656965682816,21
599618656973368704,24
599618656981054592,26
599618656988740352,26
599618656996426240,24
599618657004112128,26
599618657011798016,26
599618657019483904,24
599618657027169792,26
599618657034855552,29
599618657042541440,29
599618657050227328,24
599618657057913216,26
599618657065599104,26
599618657073284992,26
599618657080970880,26
599618657088656640,31
599618657096342528,29
599618657104028416,26
599618657111714304,33
599618657119400192,33
599618657127086080,24
599618657134771840,24
599618657142457728,31
599618657150143616,31
599618657157829504,26
599618657165515392,29
599618657173201280,31
599618657180887040,31
599618657188572928,29
599618657196258816,29
599618657203944704,31
599618657211630592,31
599618657219316480,31
599618657227002368,31
599618657234688128,31
599618657242374016,31
599618657250059904,36
599618657257745792,36
599618657265431680,31
599618657273117568,31
599618657280803328,36
599618657288489216,36
599618657296175104,31
599618657303860992,29
599618657311546880,36
599618657319232768,36
599618657326918528,31
599618657334604416,36
599618657342290304,38
599618657349976192,33
599618657357662080,33
599618657365347968,36
599618657373033728,36
599618657380719616,29
599618657388405504,29
599618657396091392,41
599618657403777280,65
599618657411463168,74
599618657419149056,65
599618657426834816,50
599618657434520704,38
599618657442206592,26
599618657449892480,31
599618657457578368,36
599618657465264120,31
599618657472950016,31
599618657480635904,33
599618657488321792,33
599618657496007680,33
599618657503693440,29
599618657511379328,-12
599618657519065216,-91
599618657526751104,-70
599618657534436992,198
599618657542122880,548
599618657549808640,555
599618657557494528,140
599618657565180416,-174
599618657572866304,-113
599618657580552192,-21
599618657588238080,-7
599618657595923840,38
599618657603609728,43
599618657611295616,12
599618657618981504,26
599618657626667392,43
599618657634353280,36
599618657642039168,36
599618657649724928,43
599618657657410816,45
599618657665096704,48
599618657672782592,50
599618657680468480,50
599618657688154368,53
599618657695840128,58
599618657703526016,60
599618657711211904,65
599618657718897792,67
599618657726583680,70
599618657734269568,74
599618657741955328,82
599618657749641216,84
599618657757327104,89
599618657765012992,94
599618657772698880,99
599618657780384768,103
599618657788070656,103
599618657795756416,99
599618657803442304,96
599618657811128192,91
599618657818814080,74
599618657826499968,53
599618657834185856,33
599618657841871616,12
599618657849557504,2
599618657857243392,-2
599618657864929280,-9
599618657872615168,-12
599618657880301056,-12
599618657887986816,-12
599618657895672704,-9
599618657903358592,-7
599618657911044480,-7
599618657918730368,-4
599618657926416256,-2
599618657934102144,-2
599618657941787904,0
599618657949473792,4
599618657957159680,7
599618657964845568,9
599618657972531456,12
599618657980217344,12
599618657987903104,16
599618657995588992,19
599618658003274880,16
599618658010960768,16
599618658018646656,21
599618658026332467,21
599618658034018304,24
599618658041704192,24
599618658049390080,24
599618658057075968,21
599618658064761728,19
599618658072447616,19
599618658080133504,24
599618658087819392,24
599618658095505280,19
599618658103191168,21
599618658110876928,21
599618658118562816,21
599618658126248704,24
599618658133934592,26
599618658141620480,26
599618658149306368,24
599618658156992128,26
599618658164678016,26
599618658172363904,24
599618658180049792,24
599618658187735680,29
599618658195421568,29
599618658203107456,26
599618658210793216,29
599618658218479104,29
599618658226164992,29
599618658233850880,29
599618658241536768,26
599618658249222656,29
599618658256908416,31
599618658264594304,29
599618658272280192,26
599618658279966080,31
599618658287651968,33
599618658295337856,31
599618658303023616,29
599618658310709504,29
599618658318395392,29
599618658326081280,29
599618658333767168,33
599618658341453056,31
599618658349138944,26
599618658356824704,29
599618658364510592,33
599618658372196480,33
599618658379882368,29
599618658387568256,21
599618658395254144,29
599618658402939904,50
599618658410625792,67
599618658418311680,62
599618658425997568,55
599618658433683456,48
599618658441369344,31
599618658449055104,19
599618658456740992,26
599618658464426880,31
599618658472112768,26
599618658479798656,24
599618658487484544,29
599618658495170304,31
599618658502856192,29
599618658510542080,14
599618658518227968,-53
599618658525913856,-125
599618658533599744,-7
599618658541285632,364
599618658548971392,674
599618658556657280,497
599618658564343168,-9
599618658572029056,-212
599618658579714944,-84
599618658587400810,-26
599618658595086336,-7
599618658602771840,41
599618658610457216,29
599618658618142720,9
599618658625828096,29
599618658633513600,36
599618658641198976,29
599618658648884480,36
599618658656569984,41
599618658664255360,41
599618658671940864,48
599618658679626240,50
599618658687311744,50
599618658694997120,55
599618658702682624,58
599618658710368128,60
599618658718053504,67
599618658725739008,70
