599617313411853056,357
599617313419545344,1655
599617313427237632,3067
599617313434929920,3224
599617313442622336,3006
599617313450314624,3287
599617313458006912,3403
599617313465699200,3306
599617313473391488,3381
599617313481083776,3456
599617313488776192,3422
599617313496468480,3429
599617313504160768,3470
599617313511853056,3480
599617313519545344,3516
599617313527237632,3567
599617313534929920,3572
599617313542622336,3555
599617313550314624,3548
599617313558006912,3540
599617313565699200,3545
599617313573391488,3552
599617313581083776,3545
599617313588776192,3548
599617313596468480,3555
599617313604160768,3550
599617313611853056,3543
599617313619545344,3543
599617313627237632,3487
599617313634929920,3349
599617313642622336,3320
599617313650314624,3673
599617313658006912,4263
599617313665699200,4466
599617313673391488,3913
599617313681083776,3241
599617313688776192,3163
599617313696468480,3313
599617313704160768,3337
599617313711853056,3420
599617313719545344,3451
599617313727237632,3357
599617313734929920,3340
599617313742622336,3378
599617313750314624,3354
599617313758006912,3328
599617313765699200,3325
599617313773391488,3313
599617313781083776,3294
599617313788776192,3279
599617313796468480,3272
599617313804160768,3260
599617313811853056,3238
599617313819545344,3221
599617313827237632,3209
599617313834929920,3202
599617313842622336,3188
599617313850314624,3168
599617313858006912,3156
599617313865699200,3151
599617313873391488,3137
599617313881083776,3115
599617313888776192,3108
599617313896468480,3098
599617313904160768,3076
599617313911853056,3050
599617313919545344,3026
599617313927237632,2992
599617313934929920,2941
599617313942622336,2890
599617313950314624,2849
599617313958006912,2815
599617313965699207,2781
599617313973384704,2755
599617313981070208,2740
599617313988755584,2719
599617313996441088,2690
599617314004126464,2673
599617314011811968,2661
599617314019497344,2641
599617314027182848,2622
599617314034868352,2607
599617314042553728,2600
599617314050239232,2583
599617314057924608,2549
599617314065610112,2525
599617314073295488,2523
599617314080980992,2506
599617314088666496,2472
599617314096351872,2458
599617314104037376,2450
599617314111722752,2429
599617314119408256,2404
599617314127093760,2385
599617314134779136,2371
599617314142464640,2351
599617314150150016,2327
599617314157835520,2305
599617314165520896,2293
599617314173206400,2276
599617314180891904,2250
599617314188577280,2226
599617314196262784,2213
599617314203948160,2192
599617314211633664,2168
599617314219319040,2155
599617314227004544,2136
599617314234690048,2095
599617314242375424,2083
599617314250060928,2110
599617314257746304,2105
599617314265431808,2064
599617314273117184,2030
599617314280802688,2001
599617314288488192,1967
599617314296173568,1940
599617314303859072,1926
599617314311544448,1909
599617314319229952,1885
599617314326915328,1861
599617314334600832,1844
599617314342286336,1829
599617314349971712,1807
599617314357657216,1745
599617314365342592,1607
599617314373028096,1542
599617314380713472,1803
599617314388398976,2313
599617314396084480,2533
599617314403769856,2044
599617314411455360,1384
599617314419140736,1300
599617314426826240,1455
599617314434511744,1452
599617314442197120,1517
599617314449882624,1568
599617314457568000,1486
599617314465253504,1462
599617314472938880,1491
599617314480624384,1459
599617314488309888,1433
599617314495995264,1433
599617314503680768,1416
599617314511366144,1389
599617314519051648,1384
599617314526737032,1380
599617314534422528,1363
599617314542108032,1343
599617314549793408,1336
599617314557478912,1331
599617314565164288,1326
599617314572849792,1312
599617314580535168,1302
599617314588220672,1300
599617314595906176,1288
599617314603591552,1273
599617314611277056,1271
599617314618962432,1271
599617314626647936,1254
599617314634333312,1247
599617314642018816,1249
599617314649704320,1218
599617314657389696,1169
599617314665075200,1128
599617314672760576,1097
599617314680446080,1068
599617314688131584,1039
599617314695816960,1019
599617314703502464,1012
599617314711187840,1003
599617314718873344,988
599617314726558720,988
599617314734244224,993
599617314741929728,978
599617314749615104,961
599617314757300608,961
599617314764985984,959
599617314772671488,957
599617314780356864,952
599617314788042368,937
599617314795727872,930
599617314803413248,930
599617314811098752,928
599617314818784128,920
599617314826469632,906
599617314834155008,901
599617314841840512,903
599617314849526016,901
599617314857211392,899
599617314864896896,887
599617314872582272,889
599617314880267776,899
599617314887953152,879
599617314895638656,858
599617314903324160,862
599617314911009536,858
599617314918695040,833
599617314926380416,819
599617314934065920,831
599617314941751296,855
599617314949436800,848
599617314957122304,833
599617314964807680,831
599617314972493184,802
599617314980178560,758
599617314987864064,754
599617314995549568,763
599617315003234944,744
599617315010920448,725
599617315018605824,737
599617315026291328,739
599617315033976704,710
599617315041662208,698
599617315049347712,693
599617315057033088,596
599617315064718592,490
599617315072403968,642
599617315080089472,1090
599617315087774857,1421
599617315095460352,1174
599617315103145856,584
599617315110831232,367
599617315118516736,500
599617315126202112,546
599617315133887616,587
599617315141572992,657
599617315149258496,621
599617315156944000,582
599617315164629376,623
599617315172314880,630
599617315180000256,604
599617315187685760,606
599617315195371136,623
599617315203056640,621
599617315210742144,601
599617315218427520,592
599617315226113024,611
599617315233798400,613
599617315241483904,584
599617315249169408,577
599617315256854784,582
599617315264540288,580
599617315272225664,589
599617315279911168,589
599617315287596544,577
599617315295282048,582
599617315302967552,599
599617315310652928,601
599617315318338432,582
599617315326023808,570
599617315333709312,577
599617315341394688,558
599617315349080192,517
599617315356765696,495
599617315364451072,483
599617315372136576,461
599617315379821952,447
599617315387507456,435
599617315395192832,430
599617315402878336,430
599617315410563840,418
599617315418249216,408
599617315425934720,415
599617315433620096,413
599617315441305600,410
599617315448990976,413
599617315456676480,403
599617315464361984,403
599617315472047360,408
599617315479732864,391
599617315487418240,389
599617315495103744,391
599617315502789120,377
599617315510474624,379
599617315518160128,391
599617315525845504,379
599617315533531008,374
599617315541216384,384
599617315548901888,381
599617315556587392,372
599617315564272768,369
599617315571958272,369
599617315579643648,367
599617315587329152,360
599617315595014528,355
599617315602700032,357
599617315610385536,355
599617315618070912,362
599617315625756416,389
599617315633441792,389
599617315641127296,369
599617315648812682,357
599617315656498176,333
599617315664183680,316
599617315671869056,314
599617315679554560,314
599617315687239936,319
599617315694925440,321
599617315702610816,311
599617315710296320,304
599617315717981824,304
599617315725667200,304
599617315733352704,265
599617315741038080,164
599617315748723584,137
599617315756408960,391
599617315764094464,809
599617315771779968,940
599617315779465344,551
599617315787150848,113
599617315794836224,91
599617315802521728,205
599617315810207232,222
599617315817892608,265
599617315825578112,290
599617315833263488,258
599617315840948992,261
599617315848634368,280
599617315856319872,273
599617315864005376,273
599617315871690752,280
599617315879376256,277
599617315887061632,273
599617315894747136,275
599617315902432512,280
599617315910118016,280
599617315917803520,277
599617315925488896,285
599617315933174400,285
599617315940859776,287
599617315948545280,290
599617315956230656,290
599617315963916160,292
599617315971601664,299
599617315979287040,297
599617315986972544,290
599617315994657920,297
599617316002343424,297
599617316010028800,290
599617316017714304,282
599617316025399808,273
599617316033085184,248
599617316040770688,227
599617316048456064,215
599617316056141568,205
599617316063826944,195
599617316071512448,188
599617316079197952,188
599617316086883328,195
599617316094568832,198
599617316102254208,195
599617316109939712,193
599617316117625216,193
599617316125310592,193
599617316132996096,193
599617316140681472,200
599617316148366976,203
599617316156052352,195
599617316163737856,195
599617316171423360,203
599617316179108736,200
599617316186794240,200
599617316194479616,203
599617316202165120,203
599617316209850507,203
599617316217536000,203
599617316225221504,207
599617316232906880,210
599617316240592384,207
599617316248277760,203
599617316255963264,205
599617316263648640,210
599617316271334144,200
599617316279019648,193
599617316286705024,200
599617316294390528,200
599617316302075904,190
599617316309761408,200
599617316317446784,227
599617316325132288,232
599617316332817792,219
599617316340503168,215
599617316348188672,200
599617316355874048,176
599617316363559552,174
599617316371245056,181
599617316378930432,181
599617316386615936,178
599617316394301312,174
599617316401986816,171
599617316409672192,174
599617316417357696,174
599617316425043200,157
599617316432728576,101
599617316440414080,24
599617316448099456,94
599617316455784960,408
599617316463470336,717
599617316471155840,616
599617316478841344,186
599617316486526720,-33
599617316494212224,50
599617316501897600,111
599617316509583104,128
599617316517268480,161
599617316524953984,157
599617316532639488,147
599617316540324864,154
599617316548010368,157
599617316555695744,161
599617316563381248,169
599617316571066624,166
599617316578752128,169
599617316586437632,171
599617316594123008,178
599617316601808512,186
599617316609493888,178
599617316617179392,171
599617316624864768,186
599617316632550272,193
599617316640235776,188
599617316647921152,193
599617316655606656,198
599617316663292032,200
599617316670977536,210
599617316678663040,210
599617316686348416,207
599617316694033920,212
599617316701719296,212
599617316709404800,205
599617316717090176,195
599617316724775680,188
599617316732461184,174
599617316740146560,152
599617316747832064,145
599617316755517440,145
599617316763202944,137
599617316770888332,132
599617316778573824,135
599617316786259328,142
599617316793944704,145
599617316801630208,145
599617316809315584,145
599617316817001088,145
599617316824686464,147
599617316832371968,149
599617316840057472,154
599617316847742848,152
599617316855428352,147
599617316863113728,157
599617316870799232,164
599617316878484608,161
599617316886170112,154
599617316893855616,152
599617316901540992,159
599617316909226496,166
599617316916911872,161
599617316924597376,164
599617316932282880,166
599617316939968256,166
599617316947653760,164
599617316955339136,164
599617316963024640,159
599617316970710016,159
599617316978395520,161
599617316986081024,159
599617316993766400,159
599617317001451904,164
599617317009137280,166
599617317016822784,164
599617317024508160,164
599617317032193664,161
599617317039879168,159
599617317047564544,164
599617317055250048,164
599617317062935424,159
599617317070620928,166
599617317078306304,190
599617317085991808,198
599617317093677312,190
599617317101362688,188
599617317109048192,178
599617317116733568,159
599617317124419072,159
599617317132104448,169
599617317139789952,169
599617317147475456,166
599617317155160832,164
599617317162846336,164
599617317170531712,169
599617317178217216,169
599617317185902720,164
599617317193588096,123
599617317201273600,45
599617317208958976,62
599617317216644480,304
599617317224329856,628
599617317232015360,662
599617317239700864,321
599617317247386240,29
599617317255071744,41
599617317262757120,99
599617317270442624,113
599617317278128000,154
599617317285813504,152
599617317293499008,130
599617317301184384,149
599617317308869888,161
599617317316555264,152
599617317324240768,159
599617317331926161,169
599617317339611648,161
599617317347297152,157
599617317354982528,169
599617317362668032,174
599617317370353408,166
599617317378038912,161
599617317385724288,169
599617317393409792,171
599617317401095296,166
599617317408780672,166
599617317416466176,174
599617317424151552,176
599617317431837056,176
599617317439522432,178
599617317447207936,181
599617317454893440,183
599617317462578816,183
599617317470264320,181
599617317477949696,171
599617317485635200,164
599617317493320704,164
599617317501006080,149
599617317508691584,132
599617317516376960,130
599617317524062464,130
599617317531747840,125
599617317539433344,125
599617317547118848,128
599617317554804224,128
599617317562489728,125
599617317570175104,123
599617317577860608,128
599617317585545984,130
599617317593231488,128
599617317600916992,132
599617317608602368,137
599617317616287872,130
599617317623973248,132
599617317631658752,137
599617317639344128,135
599617317647029632,135
599617317654715136,137
599617317662400512,140
599617317670086016,140
599617317677771392,135
599617317685456896,135
599617317693142272,137
599617317700827776,140
599617317708513280,137
599617317716198656,137
599617317723884160,135
599617317731569536,128
599617317739255040,130
599617317746940416,135
599617317754625920,130
599617317762311424,128
599617317769996800,132
599617317777682304,132
599617317785367680,128
599617317793053184,130
599617317800738688,132
599617317808424064,130
599617317816109568,132
599617317823794944,132
599617317831480448,128
599617317839165824,132
599617317846851328,137
599617317854536832,135
599617317862222208,135
599617317869907712,145
599617317877593088,142
599617317885278592,135
599617317892963986,140
599617317900649472,142
599617317908334976,135
599617317916020352,137
599617317923705856,142
599617317931391232,140
599617317939076736,145
599617317946762112,147
599617317954447616,142
599617317962133120,142
599617317969818496,140
599617317977504000,137
599617317985189376,142
599617317992874880,145
599617318000560256,140
599617318008245760,142
599617318015931264,142
599617318023616640,140
599617318031302144,140
599617318038987520,137
599617318046673024,137
599617318054358528,140
599617318062043904,132
599617318069729408,130
599617318077414784,135
599617318085100288,137
599617318092785664,132
599617318100471168,128
599617318108156672,137
599617318115842048,154
599617318123527552,169
599617318131212928,166
599617318138898432,154
599617318146583808,142
599617318154269312,130
599617318161954816,125
599617318169640192,135
599617318177325696,140
599617318185011072,132
599617318192696576,130
599617318200381952,135
599617318208067456,137
599617318215752960,135
599617318223438336,106
599617318231123840,24
599617318238809216,-29
599617318246494720,140
599617318254180096,526
599617318261865600,763
599617318269551104,526
599617318277236480,79
599617318284921984,-50
599617318292607360,50
599617318300292864,79
599617318307978240,91
599617318315663744,125
599617318323349248,113
599617318331034624,103
599617318338720128,123
599617318346405504,125
599617318354091008,123
599617318361776512,128
599617318369461888,132
599617318377147392,132
599617318384832768,135
599617318392518272,140
599617318400203648,140
599617318407889152,142
599617318415574656,147
599617318423260032,149
599617318430945536,152
599617318438630912,149
599617318446316416,147
599617318454001811,152
599617318461687296,157
599617318469372800,157
599617318477058176,159
599617318484743680,159
599617318492429056,161
599617318500114560,164
599617318507799936,159
599617318515485440,157
599617318523170944,157
599617318530856320,154
599617318538541824,145
599617318546227200,137
599617318553912704,132
599617318561598080,123
599617318569283584,116
599617318576969088,118
599617318584654464,120
599617318592339968,120
599617318600025344,123
599617318607710848,128
599617318615396352,130
599617318623081728,135
599617318630767232,140
599617318638452608,140
599617318646138112,140
599617318653823488,147
599617318661508992,147
599617318669194496,145
599617318676879872,142
599617318684565376,147
599617318692250752,149
599617318699936256,140
599617318707621632,137
599617318715307136,140
599617318722992640,140
599617318730678016,142
599617318738363520,142
599617318746048896,137
599617318753734400,140
599617318761419776,140
599617318769105280,137
599617318776790784,135
599617318784476160,135
599617318792161664,137
599617318799847040,137
599617318807532544,135
599617318815217920,135
599617318822903424,135
599617318830588928,137
599617318838274304,135
599617318845959808,135
599617318853645184,137
599617318861330688,142
599617318869016064,142
599617318876701568,145
599617318884387072,145
599617318892072448,145
599617318899757952,142
599617318907443328,145
599617318915128832,147
599617318922814336,149
599617318930499712,149
599617318938185216,152
599617318945870592,149
599617318953556096,154
599617318961241472,157
599617318968926976,154
599617318976612480,152
599617318984297856,154
599617318991983360,157
599617318999668736,154
599617319007354240,154
599617319015039636,154
599617319022725120,152
599617319030410624,149
599617319038096000,149
599617319045781504,149
599617319053466880,152
599617319061152384,149
599617319068837760,147
599617319076523264,147
599617319084208768,149
599617319091894144,149
599617319099579648,159
599617319107265024,181
599617319114950528,203
599617319122635904,203
599617319130321408,195
599617319138006912,186
599617319145692288,169
599617319153377792,154
599617319161063168,159
599617319168748672,174
599617319176434176,178
599617319184119552,176
599617319191805056,176
599617319199490432,178
599617319207175936,183
599617319214861312,176
599617319222546816,116
599617319230232320,9
599617319237917696,43
599617319245603200,391
599617319253288576,850
599617319260974080,918
599617319268659456,451
599617319276344960,29
599617319284030464,26
599617319291715840,118
599617319299401344,116
599617319307086720,128
599617319314772224,135
599617319322457600,125
599617319330143104,132
599617319337828608,142
599617319345513984,140
599617319353199488,142
599617319360884864,147
599617319368570368,147
599617319376255744,147
599617319383941248,152
599617319391626752,154
599617319399312128,152
599617319406997632,152
599617319414683008,154
599617319422368512,154
599617319430053888,152
599617319437739392,154
599617319445424896,154
599617319453110272,154
599617319460795776,154
599617319468481152,154
599617319476166656,157
599617319483852160,157
599617319491537536,159
599617319499223040,169
599617319506908416,176
599617319514593920,174
599617319522279296,174
599617319529964800,171
599617319537650304,159
599617319545335680,147
599617319553021184,140
599617319560706560,135
599617319568392064,130
599617319576077461,130
599617319583762944,128
599617319591448448,128
599617319599133824,128
599617319606819328,128
599617319614504704,128
599617319622190208,125
599617319629875584,123
599617319637561088,123
599617319645246592,120
599617319652931968,118
599617319660617472,118
599617319668302848,125
599617319675988352,125
599617319683673728,125
599617319691359232,128
599617319699044736,125
599617319706730112,125
599617319714415616,125
599617319722100992,128
599617319729786496,130
599617319737472000,128
599617319745157376,125
599617319752842880,123
599617319760528256,118
599617319768213760,116
599617319775899136,113
599617319783584640,108
599617319791270144,106
599617319798955520,106
599617319806641024,101
599617319814326400,101
599617319822011904,101
599617319829697280,101
599617319837382784,99
599617319845068288,101
599617319852753664,101
599617319860439168,99
599617319868124544,99
599617319875810048,99
599617319883495424,96
599617319891180928,96
599617319898866432,94
599617319906551808,94
599617319914237312,94
599617319921922688,94
599617319929608192,94
599617319937293568,91
599617319944979072,91
599617319952664576,91
599617319960349952,89
599617319968035456,91
599617319975720832,91
599617319983406336,89
599617319991091712,89
599617319998777216,91
599617320006462720,91
599617320014148096,89
599617320021833600,89
599617320029518976,89
599617320037204480,89
599617320044889984,89
599617320052575360,89
599617320060260864,89
599617320067946240,89
599617320075631744,84
599617320083317120,82
599617320091002624,77
599617320098688128,72
599617320106373504,89
599617320114059008,118
599617320121744384,125
599617320129429888,113
599617320137115286,106
599617320144800768,91
599617320152486272,70
599617320160171648,70
599617320167857152,79
599617320175542528,74
599617320183228032,70
599617320190913408,72
599617320198598912,72
599617320206284416,70
599617320213969792,60
599617320221655296,-2
599617320229340672,-120
599617320237026176,-99
599617320244711552,265
599617320252397056,809
599617320260082560,966
599617320267767936,478
599617320275453440,-53
599617320283138816,-99
599617320290824320,29
599617320298509824,33
599617320306195200,4
599617320313880704,7
599617320321566080,16
599617320329251584,24
599617320336936960,29
599617320344622464,33
599617320352307968,36
599617320359993344,38
599617320367678848,45
599617320375364224,48
599617320383049728,48
599617320390735104,53
599617320398420608,55
599617320406106112,55
599617320413791488,55
599617320421476992,58
599617320429162368,55
599617320436847872,55
599617320444533248,55
599617320452218752,50
599617320459904256,48
599617320467589632,48
599617320475275136,48
599617320482960512,48
599617320490646016,48
599617320498331392,48
599617320506016896,48
599617320513702400,55
599617320521387776,60
599617320529073280,58
599617320536758656,53
599617320544444160,45
599617320552129664,45
599617320559815040,43
599617320567500544,38
599617320575185920,36
599617320582871424,33
599617320590556800,31
599617320598242304,29
599617320605927808,29
599617320613613184,29
599617320621298688,29
599617320628984064,26
599617320636669568,29
599617320644354944,29
599617320652040448,29
599617320659725952,31
599617320667411328,31
599617320675096832,31
599617320682782208,33
599617320690467712,36
599617320698153115,36
599617320705838592,36
599617320713524096,38
599617320721209472,43
599617320728894976,45
599617320736580352,43
599617320744265856,45
599617320751951232,48
599617320759636736,48
599617320767322240,45
599617320775007616,43
599617320782693120,43
599617320790378496,43
599617320798064000,41
599617320805749376,43
599617320813434880,45
599617320821120384,43
599617320828805760,41
599617320836491264,43
599617320844176640,41
599617320851862144,41
599617320859547648,41
599617320867233024,38
599617320874918528,36
599617320882603904,38
599617320890289408,38
599617320897974784,38
599617320905660288,41
599617320913345792,41
599617320921031168,41
599617320928716672,41
599617320936402048,41
599617320944087552,41
599617320951772928,41
599617320959458432,41
599617320967143936,41
599617320974829312,41
599617320982514816,38
599617320990200192,41
599617320997885696,43
599617321005571072,41
599617321013256576,38
599617321020942080,38
599617321028627456,38
599617321036312960,36
599617321043998336,33
599617321051683840,31
599617321059369216,29
599617321067054720,24
599617321074740224,26
599617321082425600,24
599617321090111104,19
599617321097796480,16
599617321105481984,9
599617321113167360,0
599617321120852864,19
599617321128538368,55
599617321136223744,65
599617321143909248,50
599617321151594624,45
599617321159280128,31
599617321166965632,12
599617321174651008,14
599617321182336512,26
599617321190021888,24
599617321197707392,21
599617321205392768,24
599617321213078272,24
599617321220763776,24
599617321228449152,14
599617321236134656,-62
599617321243820032,-193
599617321251505536,-140
599617321259190940,290
599617321266876416,891
599617321274561920,1046
599617321282247296,490
599617321289932800,-94
599617321297618176,-145
599617321305303680,-12
599617321312989056,-19
599617321320674560,-62
599617321328360064,-55
599617321336045440,-36
599617321343730944,-33
599617321351416320,-29
599617321359101824,-21
599617321366787200,-19
599617321374472704,-14
599617321382158208,-9
599617321389843584,-9
599617321397529088,-7
599617321405214464,-4
599617321412899968,-2
599617321420585472,2
599617321428270848,4
599617321435956352,7
599617321443641728,9
599617321451327232,12
599617321459012608,12
599617321466698112,12
599617321474383616,16
599617321482068992,16
599617321489754496,16
599617321497439872,19
599617321505125376,19
599617321512810752,19
599617321520496256,24
599617321528181760,26
599617321535867136,26
599617321543552640,24
599617321551238016,24
599617321558923520,19
599617321566608896,14
599617321574294400,9
599617321581979904,7
599617321589665280,7
599617321597350784,7
599617321605036160,7
599617321612721664,4
599617321620407040,4
599617321628092544,7
599617321635778048,9
599617321643463424,9
599617321651148928,12
599617321658834304,14
599617321666519808,16
599617321674205184,16
599617321681890688,14
599617321689576192,16
599617321697261568,19
599617321704947072,21
599617321712632448,24
599617321720317952,24
599617321728003456,24
599617321735688832,26
599617321743374336,29
599617321751059712,29
599617321758745216,29
599617321766430592,31
599617321774116096,33
599617321781801600,33
599617321789486976,31
599617321797172480,33
599617321804857856,33
599617321812543360,31
599617321820228765,31
599617321827914240,31
599617321835599744,33
599617321843285120,36
599617321850970624,36
599617321858656000,36
599617321866341504,36
599617321874026880,36
599617321881712384,36
599617321889397888,36
599617321897083264,36
599617321904768768,38
599617321912454144,38
599617321920139648,36
599617321927825024,36
599617321935510528,38
599617321943196032,41
599617321950881408,38
599617321958566912,41
599617321966252288,41
599617321973937792,43
599617321981623296,43
599617321989308672,43
599617321996994176,45
599617322004679552,45
599617322012365056,45
599617322020050432,45
599617322027735936,45
599617322035421440,43
599617322043106816,45
599617322050792320,43
599617322058477696,33
599617322066163200,21
599617322073848576,29
599617322081534080,60
599617322089219584,84
599617322096904960,82
599617322104590464,70
599617322112275840,58
599617322119961344,36
599617322127646720,26
599617322135332224,41
599617322143017728,45
599617322150703104,38
599617322158388608,38
599617322166073984,43
599617322173759488,43
599617322181444864,38
599617322189130368,-12
599617322196815872,-140
599617322204501248,-176
599617322212186752,135
599617322219872128,734
599617322227557632,1090
599617322235243008,713
599617322242928512,33
599617322250614016,-188
599617322258299392,-55
599617322265984896,9
599617322273670272,-14
599617322281355776,-33
599617322289041280,-26
599617322296726656,-12
599617322304412160,-7
599617322312097536,-4
599617322319783040,2
599617322327468416,9
599617322335153920,14
599617322342839424,19
599617322350524800,24
599617322358210304,26
599617322365895680,29
599617322373581184,31
599617322381266590,36
599617322388952448,41
599617322396638336,43
599617322404324224,43
599617322412010112,45
599617322419695872,48
599617322427381760,48
599617322435067648,53
599617322442753536,53
599617322450439424,50
599617322458125312,53
599617322465811072,55
599617322473496960,53
599617322481182848,53
599617322488868736,55
599617322496554624,50
599617322504240512,41
599617322511926272,31
599617322519612160,29
599617322527298048,26
599617322534983936,21
599617322542669824,19
599617322550355712,21
599617322558041600,21
599617322565727360,19
599617322573413248,19
599617322581099136,24
599617322588785024,24
599617322596470912,24
599617322604156800,24
599617322611842560,26
599617322619528448,29
599617322627214336,31
599617322634900224,29
599617322642586112,31
599617322650272000,33
599617322657957760,33
599617322665643648,33
599617322673329536,36
599617322681015424,38
599617322688701312,38
599617322696387200,43
599617322704073088,45
599617322711758848,48
599617322719444736,48
599617322727130624,48
599617322734816512,50
599617322742502400,50
599617322750188288,48
599617322757874048,48
599617322765559936,48
599617322773245824,48
599617322780931712,48
599617322788617600,53
599617322796303488,53
599617322803989248,50
599617322811675136,50
599617322819361024,53
599617322827046912,53
599617322834732800,53
599617322842418688,55
599617322850104448,60
599617322857790336,65
599617322865476224,65
599617322873162112,65
599617322880848000,67
599617322888533888,70
599617322896219776,70
599617322903905536,67
599617322911591424,70
599617322919277312,70
599617322926963200,70
599617322934649088,67
599617322942334933,65
599617322950020480,60
599617322957705984,53
599617322965391360,62
599617322973076864,91
599617322980762240,118
599617322988447744,113
599617322996133120,99
599617323003818624,84
599617323011504128,65
599617323019189504,60
599617323026875008,72
599617323034560384,72
599617323042245888,65
599617323049931264,67
599617323057616768,72
599617323065302272,70
599617323072987648,60
599617323080673152,-4
599617323088358528,-130
599617323096044032,-101
599617323103729536,299
599617323111414912,867
599617323119100416,1007
599617323126785792,449
599617323134471296,-123
599617323142156672,-157
599617323149842176,-16
599617323157527680,19
599617323165213056,24
599617323172898560,12
599617323180583936,2
599617323188269440,19
599617323195954816,26
599617323203640320,24
599617323211325824,33
599617323219011200,41
599617323226696704,43
599617323234382080,45
599617323242067584,48
599617323249752960,50
599617323257438464,58
599617323265123968,60
599617323272809344,60
599617323280494848,62
599617323288180224,67
599617323295865728,70
599617323303551104,67
599617323311236608,70
599617323318922112,70
599617323326607488,72
599617323334292992,77
599617323341978368,74
599617323349663872,72
599617323357349248,74
599617323365034752,77
599617323372720256,77
599617323380405632,72
599617323388091136,60
599617323395776512,48
599617323403462016,36
599617323411147520,29
599617323418832896,24
599617323426518400,16
599617323434203776,12
599617323441889280,12
599617323449574656,12
599617323457260160,12
599617323464945664,14
599617323472631040,16
599617323480316544,16
599617323488001920,19
599617323495687424,21
599617323503372758,24
599617323511058304,29
599617323518743808,31
599617323526429184,31
599617323534114688,31
599617323541800064,31
599617323549485568,36
599617323557170944,36
599617323564856448,31
599617323572541952,31
599617323580227328,33
599617323587912832,33
599617323595598208,33
599617323603283712,33
599617323610969088,31
599617323618654592,31
599617323626340096,31
599617323634025472,29
599617323641710976,29
599617323649396352,31
599617323657081856,29
599617323664767360,26
599617323672452736,26
599617323680138240,26
599617323687823616,26
599617323695509120,26
599617323703194496,24
599617323710880000,21
599617323718565504,21
599617323726250880,21
599617323733936384,21
599617323741621760,21
599617323749307264,19
599617323756992640,19
599617323764678144,19
599617323772363648,12
599617323780049024,7
599617323787734528,31
599617323795419904,60
599617323803105408,65
599617323810790784,53
599617323818476288,41
599617323826161792,21
599617323833847168,9
599617323841532672,14
599617323849218048,21
599617323856903552,19
599617323864588928,16
599617323872274432,19
599617323879959936,21
599617323887645312,21
599617323895330816,4
599617323903016192,-74
599617323910701696,-178
599617323918387200,-70
599617323926072576,377
599617323933758080,819
599617323941443456,674
599617323949128960,21
599617323956814336,-309
599617323964499840,-164
599617323972185344,-77
599617323979870720,-43
599617323987556224,38
599617323995241600,21
599617324002927104,-16
599617324010612480,16
599617324018297984,29
599617324025983488,14
599617324033668864,19
599617324041354368,29
599617324049039744,26
599617324056725248,31
599617324064410587,38
599617324072096128,38
599617324079781632,41
599617324087467008,45
599617324095152512,50
599617324102837888,53
599617324110523392,58
599617324118208768,62
599617324125894272,65
599617324133579776,67
599617324141265152,74
599617324148950656,79
599617324156636032,84
599617324164321536,84
599617324172006912,87
599617324179692416,91
599617324187377920,89
599617324195063296,77
599617324202748800,60
599617324210434176,33
599617324218119680,12
599617324225805184,-2
599617324233490560,-12
599617324241176064,-16
599617324248861440,-21
599617324256546944,-21
599617324264232320,-21
599617324271917824,-21
599617324279603328,-21
599617324287288704,-14
599617324294974208,-9
599617324302659584,-9
599617324310345088,-7
599617324318030464,-7
599617324325715968,-7
599617324333401472,-2
599617324341086848,0
599617324348772352,2
599617324356457728,2
599617324364143232,4
599617324371828608,4
599617324379514112,4
599617324387199616,7
599617324394884992,4
599617324402570496,2
599617324410255872,4
599617324417941376,7
599617324425626752,4
599617324433312256,7
599617324440997760,12
599617324448683136,7
599617324456368640,2
599617324464054016,4
599617324471739520,7
599617324479424896,9
599617324487110400,7
599617324494795904,0
599617324502481280,0
599617324510166784,0
599617324517852160,0
599617324525537664,19
599617324533223168,43
599617324540908544,43
599617324548594048,36
599617324556279424,24
599617324563964928,2
599617324571650304,-2
599617324579335808,4
599617324587021312,2
599617324594706688,2
599617324602392192,4
599617324610077568,2
599617324617763072,4
599617324625448412,7
599617324633133952,-2
599617324640819456,-60
599617324648504832,-164
599617324656190336,-130
599617324663875712,222
599617324671561216,676
599617324679246592,676
599617324686932096,123
599617324694617600,-282
599617324702302976,-207
599617324709988480,-99
599617324717673856,-70
599617324725359360,19
599617324733044736,26
599617324740730240,-21
599617324748415744,0
599617324756101120,24
599617324763786624,12
599617324771472000,12
599617324779157504,21
599617324786843008,21
599617324794528384,26
599617324802213888,33
599617324809899264,33
599617324817584768,33
599617324825270144,38
599617324832955648,41
599617324840641152,43
599617324848326528,48
599617324856012032,53
599617324863697408,58
599617324871382912,62
599617324879068288,67
599617324886753792,70
599617324894439296,77
599617324902124672,82
599617324909810176,84
599617324917495552,87
599617324925181056,79
599617324932866432,65
599617324940551936,45
599617324948237440,16
599617324955922816,-7
599617324963608320,-21
599617324971293696,-33
599617324978979200,-38
599617324986664576,-45
599617324994350080,-53
599617325002035584,-50
599617325009720960,-48
599617325017406464,-50
599617325025091840,-48
599617325032777344,-45
599617325040462720,-45
599617325048148224,-41
599617325055833728,-33
599617325063519104,-29
599617325071204608,-33
599617325078889984,-31
599617325086575488,-26
599617325094260992,-24
599617325101946368,-26
599617325109631872,-19
599617325117317248,-16
599617325125002752,-21
599617325132688128,-19
599617325140373632,-19
599617325148059136,-21
599617325155744512,-24
599617325163430016,-16
599617325171115392,-14
599617325178800896,-16
599617325186486237,-16
599617325194171776,-12
599617325201857280,-14
599617325209542656,-19
599617325217228160,-16
599617325224913536,-12
599617325232599040,0
599617325240284416,24
599617325247969920,29
599617325255655424,21
599617325263340800,14
599617325271026304,-2
599617325278711680,-19
599617325286397184,-16
599617325294082560,-7
599617325301768064,-7
599617325309453568,-12
599617325317138944,-14
599617325324824448,-14
599617325332509824,-12
599617325340195328,-12
599617325347880832,-38
599617325355566208,-130
599617325363251712,-188
599617325370937088,12
599617325378622592,454
599617325386307968,691
599617325393993472,350
599617325401678976,-174
599617325409364352,-263
599617325417049856,-130
599617325424735232,-99
599617325432420736,-29
599617325440106112,24
599617325447791616,-21
599617325455477120,-26
599617325463162496,7
599617325470848000,2
599617325478533376,-4
599617325486218880,7
599617325493904256,16
599617325501589760,14
599617325509275264,14
599617325516960640,21
599617325524646144,21
599617325532331520,24
599617325540017024,29
599617325547702400,33
599617325555387904,36
599617325563073408,43
599617325570758784,50
599617325578444288,55
599617325586129664,60
599617325593815168,65
599617325601500544,65
599617325609186048,67
599617325616871552,74
599617325624556928,74
599617325632242432,70
599617325639927808,65
599617325647613312,55
599617325655298816,31
599617325662984192,7
599617325670669696,-4
599617325678355072,-14
599617325686040576,-21
599617325693725952,-24
599617325701411456,-24
599617325709096960,-24
599617325716782336,-24
599617325724467840,-29
599617325732153216,-31
599617325739838720,-26
599617325747524062,-26
599617325755209600,-26
599617325762895104,-24
599617325770580480,-21
599617325778265984,-21
599617325785951360,-21
599617325793636864,-19
599617325801322240,-16
599617325809007744,-16
599617325816693248,-16
599617325824378624,-12
599617325832064128,-12
599617325839749504,-16
599617325847435008,-14
599617325855120384,-14
599617325862805888,-16
599617325870491392,-16
599617325878176768,-9
599617325885862272,-14
599617325893547648,-16
599617325901233152,-14
599617325908918656,-14
599617325916604032,-16
599617325924289536,-4
599617325931974912,16
599617325939660416,26
599617325947345792,21
599617325955031296,16
599617325962716800,2
599617325970402176,-14
599617325978087680,-14
599617325985773056,-9
599617325993458560,-7
599617326001143936,-7
599617326008829440,-7
599617326016514944,-9
599617326024200320,-7
599617326031885824,-7
599617326039571200,-12
599617326047256704,-65
599617326054942080,-157
599617326062627584,-108
599617326070313088,217
599617326077998464,584
599617326085683968,529
599617326093369344,50
599617326101054848,-246
599617326108740224,-169
599617326116425728,-84
599617326124111232,-50
599617326131796608,12
599617326139482112,7
599617326147167488,-24
599617326154852992,-7
599617326162538368,12
599617326170223872,7
599617326177909376,9
599617326185594752,14
599617326193280256,12
599617326200965632,12
599617326208651136,14
599617326216336640,19
599617326224022016,24
599617326231707520,26
599617326239392896,33
599617326247078400,36
599617326254763776,38
599617326262449280,41
599617326270134784,43
599617326277820160,50
599617326285505664,58
599617326293191040,60
599617326300876544,58
599617326308561887,67
599617326316247424,72
599617326323932928,65
599617326331618304,53
599617326339303808,43
599617326346989184,26
599617326354674688,4
599617326362360064,-7
599617326370045568,-12
599617326377731072,-21
599617326385416448,-29
599617326393101952,-24
599617326400787328,-19
599617326408472832,-24
599617326416158208,-21
599617326423843712,-14
599617326431529216,-14
599617326439214592,-14
599617326446900096,-9
599617326454585472,-9
599617326462270976,-12
599617326469956480,-7
599617326477641856,-4
599617326485327360,-4
599617326493012736,0
599617326500698240,-2
599617326508383616,-4
599617326516069120,0
599617326523754624,2
599617326531440000,0
599617326539125504,4
599617326546810880,7
599617326554496384,4
599617326562181760,4
599617326569867264,12
599617326577552768,9
599617326585238144,7
599617326592923648,4
599617326600609024,2
599617326608294528,7
599617326615979904,7
599617326623665408,14
599617326631350912,41
599617326639036288,50
599617326646721792,36
599617326654407168,31
599617326662092672,19
599617326669778048,0
599617326677463552,-2
599617326685149056,7
599617326692834432,9
599617326700519936,9
599617326708205312,12
599617326715890816,7
599617326723576192,7
599617326731261696,14
599617326738947200,0
599617326746632576,-65
599617326754318080,-142
599617326762003456,-58
599617326769688960,270
599617326777374464,580
599617326785059840,464
599617326792745344,14
599617326800430720,-203
599617326808116224,-106
599617326815801600,-45
599617326823487104,-21
599617326831172608,26
599617326838857984,16
599617326846543488,-2
599617326854228864,14
599617326861914368,24
599617326869599712,16
599617326877284736,24
599617326884969728,31
599617326892654848,26
599617326900339840,29
599617326908024832,33
599617326915709952,36
599617326923394944,31
599617326931079936,38
599617326938764928,45
599617326946450048,43
599617326954135040,43
599617326961820032,50
599617326969505152,53
599617326977190144,58
599617326984875136,58
599617326992560256,60
599617327000245248,65
599617327007930240,67
599617327015615360,65
599617327023300352,60
599617327030985344,53
599617327038670464,45
599617327046355456,26
599617327054040448,14
599617327061725440,12
599617327069410560,-2
599617327077095552,-9
599617327084780544,-4
599617327092465664,-2
599617327100150656,-7
599617327107835648,-7
599617327115520768,-2
599617327123205760,-2
599617327130890752,0
599617327138575872,2
599617327146260864,2
599617327153945856,0
599617327161630848,0
599617327169315968,7
599617327177000960,7
599617327184685952,4
599617327192371072,9
599617327200056064,14
599617327207741056,9
599617327215426176,7
599617327223111168,14
599617327230796160,16
599617327238481280,14
599617327246166272,12
599617327253851264,16
599617327261536256,16
599617327269221376,12
599617327276906368,12
599617327284591360,16
599617327292276480,14
599617327299961472,12
599617327307646464,14
599617327315331584,19
599617327323016576,16
599617327330701568,19
599617327338386688,24
599617327346071680,16
599617327353756672,12
599617327361441792,14
599617327369126784,26
599617327376811776,45
599617327384496768,55
599617327392181888,50
599617327399866880,50
599617327407551872,38
599617327415236992,16
599617327422921984,12
599617327430607023,26
599617327438292480,24
599617327445977984,16
599617327453663360,19
599617327461348864,21
599617327469034240,21
599617327476719744,24
599617327484405120,19
599617327492090624,-19
599617327499776128,-99
599617327507461504,-99
599617327515147008,140
599617327522832384,493
599617327530517888,567
599617327538203264,215
599617327545888768,-130
599617327553574272,-125
599617327561259648,-33
599617327568945152,-21
599617327576630528,12
599617327584316032,26
599617327592001536,4
599617327599686912,12
599617327607372416,29
599617327615057792,21
599617327622743296,26
599617327630428672,33
599617327638114176,31
599617327645799680,31
599617327653485056,33
599617327661170560,36
599617327668855936,41
599617327676541440,43
599617327684226816,43
599617327691912320,48
599617327699597824,50
599617327707283200,50
599617327714968704,53
599617327722654080,55
599617327730339584,58
599617327738024960,62
599617327745710464,62
599617327753395968,62
599617327761081344,67
599617327768766848,65
599617327776452224,60
599617327784137728,53
599617327791823104,45
599617327799508608,36
599617327807194112,24
599617327814879488,14
599617327822564992,12
599617327830250368,9
599617327837935872,9
599617327845621248,9
599617327853306752,9
599617327860992256,12
599617327868677632,9
599617327876363136,9
599617327884048512,12
599617327891734016,14
599617327899419520,16
599617327907104896,19
599617327914790400,19
599617327922475776,21
599617327930161280,24
599617327937846656,24
599617327945532160,24
599617327953217664,26
599617327960903040,26
599617327968588544,29
599617327976273920,31
599617327983959424,29
599617327991644848,31
599617327999330304,33
599617328007015808,31
599617328014701184,33
599617328022386688,33
599617328030072064,33
599617328037757568,33
599617328045442944,33
599617328053128448,33
599617328060813952,36
599617328068499328,33
599617328076184832,36
599617328083870208,38
599617328091555712,38
599617328099241088,36
599617328106926592,36
599617328114612096,36
599617328122297472,38
599617328129982976,41
599617328137668352,41
599617328145353856,41
599617328153039360,41
599617328160724736,41
599617328168410240,41
599617328176095616,41
599617328183781120,43
599617328191466496,43
599617328199152000,45
599617328206837504,43
599617328214522880,43
599617328222208384,48
599617328229893760,48
599617328237579264,43
599617328245264640,43
599617328252950144,48
599617328260635648,48
599617328268321024,45
599617328276006528,45
599617328283691904,48
599617328291377408,48
599617328299062784,50
599617328306748288,48
599617328314433792,53
599617328322119168,53
599617328329804672,48
599617328337490048,45
599617328345175552,50
599617328352860928,50
599617328360546432,50
599617328368231936,53
599617328375917312,53
599617328383602816,50
599617328391288192,53
599617328398973696,53
599617328406659072,53
599617328414344576,50
599617328422030080,45
599617328429715456,48
599617328437400960,50
599617328445086336,38
599617328452771840,36
599617328460457344,60
599617328468142720,79
599617328475828224,79
599617328483513600,72
599617328491199104,65
599617328498884480,50
599617328506569984,38
599617328514255488,45
599617328521940864,53
599617328529626368,48
599617328537311744,45
599617328544997248,48
599617328552682673,50
599617328560368128,50
599617328568053632,38
599617328575739008,-26
599617328583424512,-116
599617328591109888,-41
599617328598795392,311
599617328606480768,693
599617328614166272,645
599617328621851776,174
599617328629537152,-132
599617328637222656,-72
599617328644908032,2
599617328652593536,2
599617328660278912,31
599617328667964416,33
599617328675649920,16
599617328683335296,29
599617328691020800,41
599617328698706176,38
599617328706391680,41
599617328714077184,45
599617328721762560,45
599617328729448064,48
599617328737133440,53
599617328744818944,50
599617328752504320,53
599617328760189824,60
599617328767875328,60
599617328775560704,62
599617328783246208,60
599617328790931584,60
599617328798617088,65
599617328806302464,65
599617328813987968,62
599617328821673472,60
599617328829358848,65
599617328837044352,67
599617328844729728,67
599617328852415232,65
599617328860100608,65
599617328867786112,67
599617328875471616,67
599617328883156992,62
599617328890842496,55
599617328898527872,50
599617328906213376,45
599617328913898752,41
599617328921584256,36
599617328929269760,38
599617328936955136,38
599617328944640640,38
599617328952326016,38
599617328960011520,41
599617328967696896,38
599617328975382400,38
599617328983067904,38
599617328990753280,41
599617328998438784,41
599617329006124160,41
599617329013809664,43
599617329021495168,43
599617329029180544,41
599617329036866048,43
599617329044551424,43
599617329052236928,43
599617329059922304,43
599617329067607808,45
599617329075293312,48
599617329082978688,45
599617329090664192,45
599617329098349568,50
599617329106035072,48
599617329113720498,43
599617329121405952,48
599617329129091456,48
599617329136776960,45
599617329144462464,45
599617329152147968,48
599617329159833600,50
599617329167519104,45
599617329175204608,41
599617329182890112,48
599617329190575616,53
599617329198261120,50
599617329205946624,50
599617329213632128,53
599617329221317760,48
599617329229003264,43
599617329236688768,45
599617329244374272,48
599617329252059776,45
599617329259745280,50
599617329267430784,53
599617329275116288,53
599617329282801920,53
599617329290487424,53
599617329298172928,53
599617329305858432,53
599617329313543936,50
599617329321229440,50
599617329328914944,55
599617329336600448,55
599617329344285952,55
599617329351971584,60
599617329359657088,60
599617329367342592,58
599617329375028096,55
599617329382713600,55
599617329390399104,58
599617329398084608,60
599617329405770112,62
599617329413455744,62
599617329421141248,62
599617329428826752,60
599617329436512256,60
599617329444197760,62
599617329451883264,62
599617329459568768,60
599617329467254272,60
599617329474939904,58
599617329482625408,58
599617329490310912,60
599617329497996416,82
599617329505681920,106
599617329513367424,106
599617329521052928,89
599617329528738432,82
599617329536423936,72
599617329544109568,60
599617329551795072,67
599617329559480576,77
599617329567166080,72
599617329574851584,72
599617329582537088,74
599617329590222592,77
599617329597908096,79
599617329605593728,70
599617329613279232,-2
599617329620964736,-106
599617329628650240,-45
599617329636335744,333
599617329644021248,787
599617329651706752,797
599617329659392256,287
599617329667077888,-99
599617329674763411,-62
599617329682449152,24
599617329690134912,14
599617329697820800,26
599617329705506560,33
599617329713192320,21
599617329720878080,29
599617329728563968,41
599617329736249728,41
599617329743935488,41
599617329751621376,45
599617329759307136,50
599617329766992896,53
599617329774678784,55
599617329782364544,55
599617329790050304,58
599617329797736064,60
599617329805421952,62
599617329813107712,65
599617329820793472,67
599617329828479360,67
599617329836165120,67
599617329843850880,67
599617329851536768,70
599617329859222528,70
599617329866908288,72
599617329874594048,74
599617329882279936,74
599617329889965696,72
599617329897651456,74
599617329905337344,79
599617329913023104,79
599617329920708864,74
599617329928394752,65
599617329936080512,60
599617329943766272,55
599617329951452032,53
599617329959137920,53
599617329966823680,50
599617329974509440,48
599617329982195328,53
599617329989881088,50
599617329997566848,50
599617330005252608,58
599617330012938496,62
599617330020624256,65
599617330028310016,67
599617330035995904,70
599617330043681664,70
599617330051367424,72
599617330059053312,74
599617330066739072,72
599617330074424832,70
599617330082110592,72
599617330089796480,74
599617330097482240,72
599617330105168000,72
599617330112853888,72
599617330120539648,70
599617330128225408,67
599617330135911296,70
599617330143597056,70
599617330151282816,67
599617330158968576,67
599617330166654464,67
599617330174340224,65
599617330182025984,62
599617330189711872,65
599617330197397632,65
599617330205083392,62
599617330212769152,62
599617330220455040,62
599617330228140800,62
599617330235826666,62
599617330243512192,62
599617330251197696,62
599617330258883072,62
599617330266568576,60
599617330274253952,58
599617330281939456,60
599617330289624832,62
599617330297310336,60
599617330304995840,60
599617330312681216,60
599617330320366720,60
599617330328052096,58
599617330335737600,58
599617330343422976,60
599617330351108480,58
599617330358793984,55
599617330366479360,50
599617330374164864,50
599617330381850240,53
599617330389535744,50
599617330397221248,48
599617330404906624,48
599617330412592128,48
599617330420277504,45
599617330427963008,45
599617330435648384,45
599617330443333888,43
599617330451019392,45
599617330458704768,45
599617330466390272,43
599617330474075648,45
599617330481761152,48
599617330489446528,43
599617330497132032,41
599617330504817536,43
599617330512502912,41
599617330520188416,26
599617330527873792,33
599617330535559296,65
599617330543244672,82
599617330550930176,72
599617330558615680,60
599617330566301056,53
599617330573986560,33
599617330581671936,26
599617330589357440,36
599617330597042816,38
599617330604728320,33
599617330612413824,36
599617330620099200,36
599617330627784704,33
599617330635470080,33
599617330643155584,9
599617330650841088,-89
599617330658526464,-174
599617330666211968,-7
599617330673897344,476
599617330681582848,887
599617330689268224,710
599617330696953728,118
599617330704639232,-169
599617330712324608,-65
599617330720010112,7
599617330727695488,-16
599617330735380992,-24
599617330743066368,-16
599617330750751872,-12
599617330758437376,-4
599617330766122752,0
599617330773808256,2
599617330781493632,7
599617330789179136,9
599617330796864495,12
599617330804550016,16
599617330812235520,19
599617330819920896,19
599617330827606400,19
599617330835291776,21
599617330842977280,24
599617330850662656,24
599617330858348160,26
599617330866033664,24
599617330873719040,21
599617330881404544,21
599617330889089920,21
599617330896775424,21
599617330904460800,24
599617330912146304,24
599617330919831808,24
599617330927517184,24
599617330935202688,29
599617330942888064,33
599617330950573568,36
599617330958259072,33
599617330965944448,26
599617330973629952,21
599617330981315328,14
599617330989000832,9
599617330996686208,9
599617331004371712,4
599617331012057216,4
599617331019742592,7
599617331027428096,7
599617331035113472,7
599617331042798976,4
599617331050484352,4
599617331058169856,4
599617331065855360,4
599617331073540736,7
599617331081226240,9
599617331088911616,7
599617331096597120,7
599617331104282496,9
599617331111968000,9
599617331119653504,9
599617331127338880,12
599617331135024384,14
599617331142709760,16
599617331150395264,19
599617331158080640,19
599617331165766144,19
599617331173451648,19
599617331181137024,19
599617331188822528,16
599617331196507904,16
599617331204193408,16
599617331211878784,16
599617331219564288,16
599617331227249792,16
599617331234935168,14
599617331242620672,14
599617331250306048,12
599617331257991552,12
599617331265677056,14
599617331273362432,14
599617331281047936,12
599617331288733312,12
599617331296418816,14
599617331304104192,14
599617331311789696,12
599617331319475200,12
599617331327160576,12
599617331334846080,12
599617331342531456,12
599617331350216960,12
599617331357902320,12
599617331365587840,9
599617331373273344,12
599617331380958720,14
599617331388644224,12
599617331396329600,14
599617331404015104,16
599617331411700480,14
599617331419385984,12
599617331427071488,9
599617331434756864,14
599617331442442368,14
599617331450127744,12
599617331457813248,14
599617331465498624,14
599617331473184128,12
599617331480869632,14
599617331488555008,14
599617331496240512,14
599617331503925888,14
599617331511611392,14
599617331519296896,12
599617331526982272,12
599617331534667776,4
599617331542353152,-4
599617331550038656,12
599617331557724032,48
599617331565409536,62
599617331573095040,48
599617331580780416,41
599617331588465920,26
599617331596151296,4
599617331603836800,4
599617331611522176,16
599617331619207680,14
599617331626893184,9
599617331634578560,12
599617331642264064,12
599617331649949440,12
599617331657634944,9
599617331665320320,-41
599617331673005824,-164
599617331680691328,-188
599617331688376704,123
599617331696062208,693
599617331703747584,990
599617331711433088,584
599617331719118464,-36
599617331726803968,-178
599617331734489472,-31
599617331742174848,-9
599617331749860352,-65
599617331757545728,-62
599617331765231232,-38
599617331772916608,-38
599617331780602112,-38
599617331788287616,-24
599617331795972992,-19
599617331803658496,-16
599617331811343872,-14
599617331819029376,-9
599617331826714880,-9
599617331834400256,-7
599617331842085760,-4
599617331849771136,0
599617331857456640,2
599617331865142016,2
599617331872827520,2
599617331880513024,4
599617331888198400,4
599617331895883904,4
599617331903569280,4
599617331911254784,7
599617331918940145,9
599617331926625664,7
599617331934311168,7
599617331941996544,7
599617331949682048,9
599617331957367424,12
599617331965052928,16
599617331972738304,16
599617331980423808,14
599617331988109312,7
599617331995794688,2
599617332003480192,0
599617332011165568,-4
599617332018851072,-7
599617332026536448,-9
599617332034221952,-7
599617332041907456,-7
599617332049592832,-7
599617332057278336,-7
599617332064963712,-4
599617332072649216,-4
599617332080334720,-4
599617332088020096,-2
599617332095705600,0
599617332103390976,0
599617332111076480,0
599617332118761856,2
599617332126447360,4
599617332134132864,4
599617332141818240,7
599617332149503744,12
599617332157189120,12
599617332164874624,12
599617332172560000,12
599617332180245504,14
599617332187931008,14
599617332195616384,14
599617332203301888,12
599617332210987264,14
599617332218672768,14
599617332226358144,14
599617332234043648,14
599617332241729152,14
599617332249414528,14
599617332257100032,14
599617332264785408,14
599617332272470912,14
599617332280156288,14
599617332287841792,14
599617332295527296,14
599617332303212672,16
599617332310898176,16
599617332318583552,16
599617332326269056,16
599617332333954432,16
599617332341639936,16
599617332349325440,16
599617332357010816,19
599617332364696320,19
599617332372381696,16
599617332380067200,16
599617332387752704,19
599617332395438080,21
599617332403123584,19
599617332410808960,19
599617332418494464,21
599617332426179840,21
599617332433865344,19
599617332441550848,19
599617332449236224,21
599617332456921728,21
599617332464607104,19
599617332472292608,19
599617332479977970,21
599617332487663488,19
599617332495348992,19
599617332503034368,19
599617332510719872,19
599617332518405248,19
599617332526090752,19
599617332533776128,14
599617332541461632,7
599617332549147136,9
599617332556832512,38
599617332564518016,67
599617332572203392,62
599617332579888896,48
599617332587574272,38
599617332595259776,16
599617332602945280,9
599617332610630656,19
599617332618316160,21
599617332626001536,16
599617332633687040,19
599617332641372544,21
599617332649057920,19
599617332656743424,19
599617332664428800,-12
599617332672114304,-120
599617332679799680,-203
599617332687485184,2
599617332695170688,543
599617332702856064,995
599617332710541568,783
599617332718226944,111
599617332725912448,-210
599617332733597824,-89
599617332741283328,-2
599617332748968832,-43
599617332756654208,-62
599617332764339712,-45
599617332772025088,-33
599617332779710592,-31
599617332787395968,-26
599617332795081472,-21
599617332802766976,-16
599617332810452352,-9
599617332818137856,-4
599617332825823232,-2
599617332833508736,0
599617332841194112,4
599617332848879616,7
599617332856565120,7
599617332864250496,12
599617332871936000,12
599617332879621376,14
599617332887306880,14
599617332894992256,16
599617332902677760,16
599617332910363264,14
599617332918048640,19
599617332925734144,21
599617332933419520,21
599617332941105024,21
599617332948790528,21
599617332956475904,26
599617332964161408,29
599617332971846784,29
599617332979532288,26
599617332987217664,19
599617332994903168,12
599617333002588672,9
599617333010274048,4
599617333017959552,4
599617333025644928,2
599617333033330432,0
599617333041015795,0
599617333048701696,2
599617333056387584,2
599617333064073472,4
599617333071759360,4
599617333079445120,4
599617333087131008,4
599617333094816896,7
599617333102502784,7
599617333110188672,9
599617333117874560,12
599617333125560320,12
599617333133246208,12
599617333140932096,14
599617333148617984,16
599617333156303872,19
599617333163989760,16
599617333171675520,16
599617333179361408,19
599617333187047296,19
599617333194733184,19
599617333202419072,19
599617333210104960,19
599617333217790848,19
599617333225476608,19
599617333233162496,16
599617333240848384,16
599617333248534272,19
599617333256220160,16
599617333263906048,16
599617333271591808,19
599617333279277696,19
599617333286963584,19
599617333294649472,21
599617333302335360,19
599617333310021248,19
599617333317707008,21
599617333325392896,19
599617333333078784,19
599617333340764672,19
599617333348450560,21
599617333356136448,21
599617333363822336,19
599617333371508096,21
599617333379193984,19
599617333386879872,19
599617333394565760,19
599617333402251648,19
599617333409937536,16
599617333417623296,16
599617333425309184,16
599617333432995072,19
599617333440680960,19
599617333448366848,16
599617333456052736,16
599617333463738496,14
599617333471424384,9
599617333479110272,7
599617333486796160,21
599617333494482048,45
599617333502167936,58
599617333509853696,45
599617333517539584,33
599617333525225472,16
599617333532911360,2
599617333540597248,7
599617333548283136,14
599617333555969024,12
599617333563654784,12
599617333571340672,12
599617333579026560,9
599617333586712448,9
599617333594398336,0
599617333602084138,-70
599617333609769600,-183
599617333617455104,-113
599617333625140480,302
599617333632825984,785
599617333640511360,754
599617333648196864,130
599617333655882240,-292
599617333663567744,-193
599617333671253248,-79
599617333678938624,-60
599617333686624128,7
599617333694309504,2
599617333701995008,-33
599617333709680384,-7
599617333717365888,9
599617333725051392,-4
599617333732736768,0
599617333740422272,12
599617333748107648,12
599617333755793152,16
599617333763478656,19
599617333771164032,21
599617333778849536,29
599617333786534912,31
599617333794220416,33
599617333801905792,38
599617333809591296,41
599617333817276800,41
599617333824962176,45
599617333832647680,53
599617333840333056,53
599617333848018560,55
599617333855703936,62
599617333863389440,62
599617333871074944,65
599617333878760320,70
599617333886445824,70
599617333894131200,62
599617333901816704,50
599617333909502080,31
599617333917187584,9
599617333924873088,-9
599617333932558464,-24
599617333940243968,-29
599617333947929344,-31
599617333955614848,-36
599617333963300224,-38
599617333970985728,-33
599617333978671232,-33
599617333986356608,-36
599617333994042112,-33
599617334001727488,-31
599617334009412992,-29
599617334017098496,-29
599617334024783872,-26
599617334032469376,-24
599617334040154752,-24
599617334047840256,-19
599617334055525632,-14
599617334063211136,-16
599617334070896640,-14
599617334078582016,-14
599617334086267520,-14
599617334093952896,-12
599617334101638400,-12
599617334109323776,-12
599617334117009280,-12
599617334124694784,-12
599617334132380160,-12
599617334140065664,-14
599617334147751040,-14
599617334155436544,-12
599617334163121967,-14
599617334170807424,-16
599617334178492928,-19
599617334186178304,-16
599617334193863808,-16
599617334201549184,-19
599617334209234688,-16
599617334216920064,-14
599617334224605568,-16
599617334232291072,-14
599617334239976448,-14
599617334247661952,-14
599617334255347328,-12
599617334263032832,-4
599617334270718208,-7
599617334278403712,-9
599617334286089216,-7
599617334293774592,-2
599617334301460096,-2
599617334309145472,-4
599617334316830976,-2
599617334324516480,0
599617334332201856,-4
599617334339887360,-14
599617334347572736,-9
599617334355258240,14
599617334362943616,31
599617334370629120,24
599617334378314624,12
599617334386000000,2
599617334393685504,-14
599617334401370880,-21
599617334409056384,-12
599617334416741760,-9
599617334424427264,-16
599617334432112768,-16
599617334439798144,-12
599617334447483648,-7
599617334455169024,-4
599617334462854528,-29
599617334470539904,-116
599617334478225408,-183
599617334485910912,2
599617334493596288,449
599617334501281792,722
599617334508967168,391
599617334516652672,-186
599617334524338048,-309
599617334532023552,-147
599617334539709056,-103
599617334547394432,-38
599617334555079936,38
599617334562765312,0
599617334570450816,-24
599617334578136192,7
599617334585821696,12
599617334593507200,2
599617334601192576,9
599617334608878080,9
599617334616563456,14
599617334624248960,19
599617334631934464,21
599617334639619840,24
599617334647305344,29
599617334654990720,29
599617334662676224,31
599617334670361600,38
599617334678047104,41
599617334685732608,45
599617334693417984,50
599617334701103488,53
599617334708788864,60
599617334716474368,67
599617334724159792,72
599617334731845248,77
599617334739530752,84
599617334747216128,82
599617334754901632,77
599617334762587008,67
599617334770272512,43
599617334777957888,9
599617334785643392,-12
599617334793328896,-21
599617334801014272,-36
599617334808699776,-50
599617334816385152,-50
599617334824070656,-45
599617334831756032,-43
599617334839441536,-43
599617334847127040,-41
599617334854812416,-36
599617334862497920,-36
599617334870183296,-36
599617334877868800,-31
599617334885554304,-24
599617334893239680,-24
599617334900925184,-24
599617334908610560,-21
599617334916296064,-21
599617334923981440,-19
599617334931666944,-16
599617334939352448,-14
599617334947037824,-14
599617334954723328,-16
599617334962408704,-19
599617334970094208,-16
599617334977779584,-12
599617334985465088,-12
599617334993150592,-14
599617335000835968,-9
599617335008521472,-9
599617335016206848,-14
599617335023892352,-14
599617335031577728,-9
599617335039263232,-7
599617335046948736,-12
599617335054634112,-12
599617335062319616,-7
599617335070004992,-7
599617335077690496,-9
599617335085375872,-9
599617335093061376,-4
599617335100746880,-2
599617335108432256,-7
599617335116117760,-9
599617335123803136,7
599617335131488640,33
599617335139174016,41
599617335146859520,36
599617335154545024,31
599617335162230400,9
599617335169915904,-9
599617335177601280,-4
599617335185286784,2
599617335192972288,-2
599617335200657664,-4
599617335208343168,-2
599617335216028544,-2
599617335223714048,-7
599617335231399424,-9
599617335239084928,-33
599617335246770432,-118
599617335254455808,-178
599617335262141312,9
599617335269826688,427
599617335277512192,647
599617335285197617,319
599617335292883328,-190
599617335300569088,-280
599617335308254848,-145
599617335315940480,-103
599617335323626240,-33
599617335331312000,26
599617335338997760,-19
599617335346683392,-31
599617335354369152,7
599617335362054912,9
599617335369740672,-4
599617335377426304,-9
599617335385112064,-9
599617335392797824,-9
599617335400483584,-12
599617335408169216,-9
599617335415854976,-4
599617335423540736,0
599617335431226496,0
599617335438912128,-2
599617335446597888,4
599617335454283648,14
599617335461969408,14
599617335469655040,16
599617335477340800,29
599617335485026560,36
599617335492712320,38
599617335500397952,45
599617335508083712,48
599617335515769472,48
599617335523455232,48
599617335531140864,43
599617335538826624,29
599617335546512384,4
599617335554198144,-21
599617335561883776,-41
599617335569569536,-53
599617335577255296,-62
599617335584941056,-70
599617335592626688,-70
599617335600312448,-65
599617335607998208,-65
599617335615683968,-65
599617335623369600,-62
599617335631055360,-58
599617335638741120,-55
599617335646426880,-53
599617335654112512,-53
599617335661798272,-48
599617335669484032,-43
599617335677169792,-38
599617335684855424,-41
599617335692541184,-38
599617335700226944,-31
599617335707912704,-29
599617335715598336,-26
599617335723284096,-24
599617335730969856,-24
599617335738655616,-24
599617335746341248,-16
599617335754027008,-16
599617335761712768,-19
599617335769398528,-14
599617335777084160,-14
599617335784769920,-16
599617335792455680,-16
599617335800141440,-14
599617335807827072,-14
599617335815512832,-12
599617335823198592,-12
599617335830884352,-16
599617335838569984,-14
599617335846255790,-12
599617335853940864,0
599617335861625984,24
599617335869311232,29
599617335876996352,21
599617335884681600,19
599617335892366720,0
599617335900051840,-19
599617335907737088,-12
599617335915422208,-2
599617335923107456,-7
599617335930792576,-9
599617335938477696,-4
599617335946162944,-9
599617335953848064,-9
599617335961533312,-2
599617335969218432,-21
599617335976903552,-103
599617335984588800,-171
599617335992273920,-16
599617335999959168,369
599617336007644288,626
599617336015329408,377
599617336023014656,-118
599617336030699776,-256
599617336038385024,-130
599617336046070144,-82
599617336053755264,-29
599617336061440512,21
599617336069125632,-7
599617336076810880,-19
599617336084496000,7
599617336092181120,9
599617336099866368,2
599617336107551488,7
599617336115236736,12
599617336122921856,14
599617336130606976,16
599617336138292224,19
599617336145977344,21
599617336153662592,26
599617336161347712,29
599617336169032832,31
599617336176718080,38
599617336184403200,43
599617336192088448,43
599617336199773568,43
599617336207458688,50
599617336215143936,55
599617336222829056,55
599617336230514176,60
599617336238199424,65
599617336245884544,62
599617336253569792,62
599617336261254912,58
599617336268940032,41
599617336276625280,19
599617336284310400,2
599617336291995648,-12
599617336299680768,-26
599617336307365888,-36
599617336315051136,-38
599617336322736256,-36
599617336330421504,-36
599617336338106624,-36
599617336345791744,-33
599617336353476992,-29
599617336361162112,-29
599617336368847360,-29
599617336376532480,-26
599617336384217600,-24
599617336391902848,-21
599617336399587968,-19
599617336407273267,-21
599617336414958720,-24
599617336422644224,-19
599617336430329600,-14
599617336438015104,-14
599617336445700480,-14
599617336453385984,-12
599617336461071360,-14
599617336468756864,-14
599617336476442368,-12
599617336484127744,-14
599617336491813248,-14
599617336499498624,-9
599617336507184128,-12
599617336514869504,-14
599617336522555008,-9
599617336530240512,-9
599617336537925888,-12
599617336545611392,-14
599617336553296768,-12
599617336560982272,-12
599617336568667776,2
599617336576353152,21
599617336584038656,26
599617336591724032,21
599617336599409536,19
599617336607094912,2
599617336614780416,-16
599617336622465920,-16
599617336630151296,-7
599617336637836800,-9
599617336645522176,-12
599617336653207680,-9
599617336660893056,-9
599617336668578560,-9
599617336676264064,-9
599617336683949440,-24
599617336691634944,-94
599617336699320320,-169
599617336707005824,-50
599617336714691200,311
599617336722376704,594
599617336730062208,406
599617336737747584,-67
599617336745433088,-241
599617336753118464,-125
599617336760803968,-70
599617336768489344,-41
599617336776174848,2
599617336783860352,-12
599617336791545728,-26
599617336799231232,-4
599617336806916608,2
599617336814602112,-2
599617336822287488,2
599617336829972992,4
599617336837658496,4
599617336845343872,12
599617336853029376,19
599617336860714752,16
599617336868400256,14
599617336876085760,19
599617336883771136,21
599617336891456640,21
599617336899142016,29
599617336906827520,33
599617336914512896,33
599617336922198400,41
599617336929883904,45
599617336937569280,45
599617336945254784,48
599617336952940160,50
599617336960625664,53
599617336968311092,50
599617336975996544,41
599617336983682048,29
599617336991367424,14
599617336999052928,-2
599617337006738304,-16
599617337014423808,-21
599617337022109184,-26
599617337029794688,-33
599617337037480192,-33
599617337045165568,-29
599617337052851072,-31
599617337060536448,-29
599617337068221952,-24
599617337075907328,-24
599617337083592832,-21
599617337091278336,-16
599617337098963712,-14
599617337106649216,-14
599617337114334592,-9
599617337122020096,-12
599617337129705600,-12
599617337137390976,-4
599617337145076480,-4
599617337152761856,-12
599617337160447360,-4
599617337168132736,2
599617337175818240,-4
599617337183503744,-7
599617337191189120,-2
599617337198874624,-2
599617337206560000,-2
599617337214245504,0
599617337221930880,2
599617337229616384,0
599617337237301888,-2
599617337244987264,-2
599617337252672768,-2
599617337260358144,0
599617337268043648,0
599617337275729024,-2
599617337283414528,-4
599617337291100032,-4
599617337298785408,4
599617337306470912,29
599617337314156288,38
599617337321841792,31
599617337329527168,24
599617337337212672,9
599617337344898176,-4
599617337352583552,-7
599617337360269056,-2
599617337367954432,0
599617337375639936,-2
599617337383325440,0
599617337391010816,0
599617337398696320,-2
599617337406381696,2
599617337414067200,0
599617337421752576,-45
599617337429438080,-128
599617337437123584,-111
599617337444808960,145
599617337452494464,493
599617337460179840,529
599617337467865344,142
599617337475550720,-186
599617337483236224,-154
599617337490921728,-65
599617337498607104,-41
599617337506292608,4
599617337513977984,4
599617337521663488,-12
599617337529348921,4
599617337537034368,12
599617337544719872,4
599617337552405248,16
599617337560090752,24
599617337567776128,19
599617337575461632,21
599617337583147008,26
599617337590832512,29
599617337598518016,29
599617337606203392,31
599617337613888896,31
599617337621574272,36
599617337629259776,38
599617337636945152,36
599617337644630656,41
599617337652316160,48
599617337660001536,50
599617337667687040,53
599617337675372416,55
599617337683057920,55
599617337690743424,55
599617337698428800,60
599617337706114304,55
599617337713799680,43
599617337721485184,33
599617337729170560,21
599617337736856064,4
599617337744541568,-2
599617337752226944,-7
599617337759912448,-14
599617337767597824,-16
599617337775283328,-14
599617337782968704,-14
599617337790654208,-12
599617337798339712,-12
599617337806025088,-9
599617337813710592,-4
599617337821395968,-4
599617337829081472,-9
599617337836766848,-2
599617337844452352,2
599617337852137856,2
599617337859823232,2
599617337867508736,4
599617337875194112,7
599617337882879616,7
599617337890564992,4
599617337898250496,9
599617337905936000,12
599617337913621376,7
599617337921306880,9
599617337928992256,14
599617337936677760,12
599617337944363136,9
599617337952048640,12
599617337959734144,14
599617337967419520,14
599617337975105024,9
599617337982790400,12
599617337990475904,16
599617337998161408,14
599617338005846784,14
599617338013532288,16
599617338021217664,14
599617338028903168,14
599617338036588544,16
599617338044274048,16
599617338051959552,19
599617338059644928,19
599617338067330432,14
599617338075015808,14
599617338082701312,16
599617338090386746,16
599617338098072192,19
599617338105757696,21
599617338113443072,19
599617338121128576,19
599617338128813952,21
599617338136499456,19
599617338144184832,12
599617338151870336,29
599617338159555840,58
599617338167241216,58
599617338174926720,45
599617338182612096,48
599617338190297600,36
599617338197982976,14
599617338205668480,14
599617338213353984,24
599617338221039360,24
599617338228724864,21
599617338236410240,21
599617338244095744,21
599617338251781248,24
599617338259466624,26
599617338267152128,12
599617338274837504,-50
599617338282523008,-128
599617338290208384,-50
599617338297893888,280
599617338305579392,609
599617338313264768,514
599617338320950272,55
599617338328635648,-188
599617338336321152,-99
599617338344006528,-29
599617338351692032,-14
599617338359377536,21
599617338367062912,19
599617338374748416,2
599617338382433792,21
599617338390119296,29
599617338397804672,24
599617338405490176,29
599617338413175680,33
599617338420861056,31
599617338428546560,36
599617338436231936,38
599617338443917440,38
599617338451602816,41
599617338459288320,43
599617338466973824,45
599617338474659200,48
599617338482344704,48
599617338490030080,50
599617338497715584,53
599617338505400960,53
599617338513086464,58
599617338520771968,62
599617338528457344,62
599617338536142848,65
599617338543828224,70
599617338551513728,70
599617338559199232,67
599617338566884608,62
599617338574570112,58
599617338582255488,45
599617338589940992,31
599617338597626368,24
599617338605311872,24
599617338612997376,19
599617338620682752,12
599617338628368256,12
599617338636053632,12
599617338643739136,12
599617338651424571,12
599617338659110016,14
599617338666795520,19
599617338674480896,19
599617338682166400,19
599617338689851776,21
599617338697537280,24
599617338705222656,21
599617338712908160,19
599617338720593664,24
599617338728279040,29
599617338735964544,29
599617338743649920,26
599617338751335424,29
599617338759020800,33
599617338766706304,31
599617338774391808,31
599617338782077184,33
599617338789762688,31
599617338797448064,31
599617338805133568,36
599617338812819072,36
599617338820504448,38
599617338828189952,43
599617338835875328,43
599617338843560832,38
599617338851246208,36
599617338858931712,33
599617338866617216,33
599617338874302592,31
599617338881988096,31
599617338889673472,31
599617338897358976,33
599617338905044352,33
599617338912729856,33
599617338920415360,36
599617338928100736,38
599617338935786240,38
599617338943471616,33
599617338951157120,38
599617338958842496,43
599617338966528000,41
599617338974213504,38
599617338981898880,41
599617338989584384,45
599617338997269760,45
599617339004955264,43
599617339012640640,43
599617339020326144,38
599617339028011648,33
599617339035697024,31
599617339043382528,33
599617339051067904,36
599617339058753408,33
599617339066438784,33
599617339074124288,36
599617339081809792,38
599617339089495168,36
599617339097180672,33
599617339104866048,36
599617339112551552,36
599617339120237056,36
599617339127922432,33
599617339135607936,36
599617339143293312,38
599617339150978816,38
599617339158664192,36
599617339166349696,36
599617339174035200,41
599617339181720576,41
599617339189406080,36
599617339197091456,36
599617339204776960,41
599617339212462396,41
599617339220147840,36
599617339227833344,36
599617339235518720,58
599617339243204224,79
599617339250889600,82
599617339258575104,70
599617339266260480,65
599617339273945984,50
599617339281631488,33
599617339289316864,38
599617339297002368,48
599617339304687744,45
599617339312373248,43
599617339320058624,48
599617339327744128,45
599617339335429632,43
599617339343115008,38
599617339350800512,-21
599617339358485888,-125
599617339366171392,-82
599617339373856896,270
599617339381542272,729
599617339389227776,780
599617339396913152,292
599617339404598656,-113
599617339412284032,-89
599617339419969536,2
599617339427655040,-2
599617339435340416,19
599617339443025920,26
599617339450711296,7
599617339458396800,16
599617339466082176,33
599617339473767680,33
599617339481453184,38
599617339489138560,43
599617339496824064,43
599617339504509440,45
599617339512194944,53
599617339519880320,53
599617339527565824,62
599617339535251328,82
599617339542936704,84
599617339550622208,77
599617339558307584,79
599617339565993088,87
599617339573678464,87
599617339581363968,89
599617339589049472,89
599617339596734848,84
599617339604420352,89
599617339612105728,94
599617339619791232,91
599617339627476608,89
599617339635162112,91
599617339642847616,94
599617339650532992,96
599617339658218496,96
599617339665903872,89
599617339673589376,77
599617339681274880,72
599617339688960256,67
599617339696645760,62
599617339704331136,58
599617339712016640,55
599617339719702016,53
599617339727387520,50
599617339735073024,53
599617339742758400,55
599617339750443904,55
599617339758129280,53
599617339765814784,50
599617339773500221,53
599617339781185664,55
599617339788871168,58
599617339796556544,58
599617339804242048,58
599617339811927424,58
599617339819612928,58
599617339827298304,60
599617339834983808,60
599617339842669312,62
599617339850354688,60
599617339858040192,58
599617339865725568,58
599617339873411072,60
599617339881096448,60
599617339888781952,58
599617339896467456,55
599617339904152832,58
599617339911838336,55
599617339919523712,53
599617339927209216,50
599617339934894720,50
599617339942580096,53
599617339950265600,50
599617339957950976,53
599617339965636480,55
599617339973321856,55
599617339981007360,53
599617339988692864,53
599617339996378240,53
599617340004063744,53
599617340011749120,55
599617340019434624,55
599617340027120000,58
599617340034805504,58
599617340042491008,58
599617340050176384,58
599617340057861888,55
599617340065547264,53
599617340073232768,58
599617340080918144,58
599617340088603648,53
599617340096289152,50
599617340103974528,55
599617340111660032,55
599617340119345408,53
599617340127030912,53
599617340134716288,55
599617340142401792,55
599617340150087296,53
599617340157772672,53
599617340165458176,53
599617340173143552,53
599617340180829056,55
599617340188514432,55
599617340196199936,53
599617340203885440,55
599617340211570816,55
599617340219256320,55
599617340226941696,53
599617340234627200,55
599617340242312704,58
599617340249998080,58
599617340257683584,58
599617340265368960,58
599617340273054464,55
599617340280739840,48
599617340288425344,45
599617340296110848,67
599617340303796224,94
599617340311481728,94
599617340319167104,77
599617340326852608,70
599617340334538046,60
599617340342223488,43
599617340349908992,48
599617340357594368,55
599617340365279872,53
599617340372965248,55
599617340380650752,58
599617340388336128,53
599617340396021632,53
599617340403707136,43
599617340411392512,-29
599617340419078016,-142
599617340426763392,-84
599617340434448896,306
599617340442134272,804
599617340449819776,853
599617340457505280,321
599617340465190656,-125
599617340472876160,-103
599617340480561536,0
599617340488247040,-14
599617340495932544,-21
599617340503617920,-14
599617340511303424,-14
599617340518988800,-4
599617340526674304,2
599617340534359680,2
599617340542045184,4
599617340549730688,12
599617340557416064,14
599617340565101568,16
599617340572786944,21
599617340580472448,24
599617340588157824,26
599617340595843328,29
599617340603528832,33
599617340611214208,33
599617340618899712,33
599617340626585088,33
599617340634270592,33
599617340641955968,31
599617340649641472,31
599617340657326976,31
599617340665012352,29
599617340672697856,29
599617340680383232,33
599617340688068736,33
599617340695754112,31
599617340703439616,38
599617340711125120,43
599617340718810496,43
599617340726496000,41
599617340734181376,31
599617340741866880,21
599617340749552384,14
599617340757237760,14
599617340764923264,9
599617340772608640,7
599617340780294144,7
599617340787979520,9
599617340795665024,9
599617340803350528,9
599617340811035904,9
599617340818721408,12
599617340826406784,12
599617340834092288,12
599617340841777664,12
599617340849463168,12
599617340857148672,12
599617340864834048,16
599617340872519552,16
599617340880204928,19
599617340887890432,21
599617340895575875,21
599617340903261440,21
599617340910946944,24
599617340918632320,24
599617340926317824,26
599617340934003200,31
599617340941688704,33
599617340949374080,33
599617340957059584,36
599617340964745088,36
599617340972430464,36
599617340980115968,36
599617340987801344,33
599617340995486848,33
599617341003172224,36
599617341010857728,36
599617341018543232,33
599617341026228608,33
599617341033914112,33
599617341041599488,29
599617341049284992,29
599617341056970496,29
599617341064655872,26
599617341072341376,26
599617341080026752,26
599617341087712256,26
599617341095397632,24
599617341103083136,24
599617341110768640,24
599617341118454016,26
599617341126139520,29
599617341133824896,29
599617341141510400,29
599617341149195776,29
599617341156881280,29
599617341164566784,29
599617341172252160,31
599617341179937664,29
599617341187623040,31
599617341195308544,31
599617341202993920,29
599617341210679424,29
599617341218364928,29
599617341226050304,29
599617341233735808,26
599617341241421184,26
599617341249106688,26
599617341256792064,26
599617341264477568,26
599617341272163072,31
599617341279848448,33
599617341287533952,31
599617341295219328,31
599617341302904832,26
599617341310590208,16
599617341318275712,21
599617341325961216,53
599617341333646592,74
599617341341332096,67
599617341349017472,58
599617341356702976,50
599617341364388480,31
599617341372073856,19
599617341379759360,29
599617341387444736,36
599617341395130240,33
599617341402815616,33
599617341410501120,36
599617341418186624,33
599617341425872000,33
599617341433557504,7
599617341441242880,-99
599617341448928384,-186
599617341456613700,4
599617341464299264,529
599617341471984768,971
599617341479670144,773
599617341487355648,132
599617341495041024,-174
599617341502726528,-58
599617341510411904,14
599617341518097408,-36
599617341525782912,-48
599617341533468288,-29
599617341541153792,-24
599617341548839168,-24
599617341556524672,-14
599617341564210048,-9
599617341571895552,-7
599617341579581056,-2
599617341587266432,2
599617341594951936,2
599617341602637312,7
599617341610322816,12
599617341618008320,12
599617341625693696,14
599617341633379200,16
599617341641064576,19
599617341648750080,19
599617341656435456,16
599617341664120960,16
599617341671806464,16
599617341679491840,16
599617341687177344,16
599617341694862720,16
599617341702548224,14
599617341710233600,16
599617341717919104,16
599617341725604608,19
599617341733289984,24
599617341740975488,26
599617341748660864,26
599617341756346368,24
599617341764031744,16
599617341771717248,9
599617341779402752,4
599617341787088128,2
599617341794773632,-2
599617341802459008,-2
599617341810144512,-2
599617341817829888,-4
599617341825515392,-2
599617341833200896,-2
599617341840886272,-2
599617341848571776,0
599617341856257152,0
599617341863942656,0
599617341871628032,0
599617341879313536,2
599617341886999040,2
599617341894684416,2
599617341902369920,4
599617341910055296,7
599617341917740800,7
599617341925426304,7
599617341933111680,12
599617341940797184,12
599617341948482560,12
599617341956168064,12
599617341963853440,14
599617341971538944,14
599617341979224448,12
599617341986909824,14
599617341994595328,14
599617342002280704,12
599617342009966208,9
599617342017651525,9
599617342025337088,12
599617342033022592,9
599617342040707968,9
599617342048393472,9
599617342056078848,12
599617342063764352,12
599617342071449728,12
599617342079135232,9
599617342086820736,9
599617342094506112,12
599617342102191616,12
599617342109876992,12
599617342117562496,12
599617342125247872,12
599617342132933376,12
599617342140618880,12
599617342148304256,12
599617342155989760,14
599617342163675136,14
599617342171360640,12
599617342179046144,12
599617342186731520,14
599617342194417024,14
599617342202102400,14
599617342209787904,14
599617342217473280,14
599617342225158784,14
599617342232844288,16
599617342240529664,16
599617342248215168,14
599617342255900544,14
599617342263586048,12
599617342271271424,9
599617342278956928,2
599617342286642432,0
599617342294327808,24
599617342302013312,55
599617342309698688,58
599617342317384192,43
599617342325069568,36
599617342332755072,19
599617342340440576,0
599617342348125952,9
599617342355811456,16
599617342363496832,12
599617342371182336,9
599617342378867712,14
599617342386553216,14
599617342394238720,12
599617342401924096,-7
599617342409609600,-96
599617342417294976,-203
599617342424980480,-77
599617342432665856,408
599617342440351360,930
599617342448036864,874
599617342455722240,232
599617342463407744,-198
599617342471093120,-118
599617342478778624,-2
599617342486464128,-38
599617342494149504,-67
599617342501835008,-50
599617342509520384,-38
599617342517205888,-41
599617342524891264,-33
599617342532576768,-21
599617342540262272,-19
599617342547947648,-16
599617342555633152,-9
599617342563318528,-7
599617342571004032,-4
599617342578689350,-2
599617342586374912,2
599617342594060416,2
599617342601745792,2
599617342609431296,7
599617342617116672,7
599617342624802176,9
599617342632487552,9
599617342640173056,7
599617342647858560,7
599617342655543936,7
599617342663229440,9
599617342670914816,9
599617342678600320,9
599617342686285696,12
599617342693971200,12
599617342701656704,16
599617342709342080,19
599617342717027584,16
599617342724712960,9
599617342732398464,2
599617342740083968,0
599617342747769344,-4
599617342755454848,-7
599617342763140224,-9
599617342770825728,-12
599617342778511104,-12
599617342786196608,-12
599617342793882112,-9
599617342801567488,-9
599617342809252992,-7
599617342816938368,-7
599617342824623872,-7
599617342832309248,-4
599617342839994752,-4
599617342847680256,0
599617342855365632,2
599617342863051136,2
599617342870736512,4
599617342878422016,7
599617342886107392,7
599617342893792896,7
599617342901478400,7
599617342909163776,7
599617342916849280,9
599617342924534656,12
599617342932220160,9
599617342939905536,9
599617342947591040,12
599617342955276544,9
599617342962961920,9
599617342970647424,9
599617342978332800,9
599617342986018304,9
599617342993703680,9
599617343001389184,9
599617343009074688,9
599617343016760064,7
599617343024445568,4
599617343032130944,7
599617343039816448,9
599617343047501952,9
599617343055187328,9
599617343062872832,9
599617343070558208,9
599617343078243712,9
599617343085929088,9
599617343093614592,9
599617343101300096,9
599617343108985472,9
599617343116670976,9
599617343124356352,12
599617343132041856,12
599617343139727175,12
599617343147412736,14
599617343155098240,14
599617343162783616,14
599617343170469120,14
599617343178154496,9
599617343185840000,7
599617343193525376,7
599617343201210880,0
599617343208896384,4
599617343216581760,31
599617343224267264,53
599617343231952640,50
599617343239638144,33
599617343247323520,21
599617343255009024,4
599617343262694528,0
599617343270379904,7
599617343278065408,7
599617343285750784,4
599617343293436288,7
599617343301121792,7
599617343308807168,9
599617343316492672,4
599617343324178048,-43
599617343331863552,-159
599617343339548928,-178
599617343347234432,142
599617343354919936,684
599617343362605312,889
599617343370290816,401
599617343377976192,-190
599617343385661696,-239
599617343393347072,-84
599617343401032576,-53
599617343408718080,-21
599617343416403456,-14
599617343424088960,-43
599617343431774336,-29
599617343439459840,-12
599617343447145216,-19
599617343454830720,-14
599617343462516224,-2
599617343470201600,-4
599617343477887104,-4
599617343485572480,2
599617343493257984,4
599617343500943360,4
599617343508628864,9
599617343516314368,12
599617343523999744,9
599617343531685248,14
599617343539370624,16
599617343547056128,16
599617343554741504,16
599617343562427008,16
599617343570112512,21
599617343577797888,24
599617343585483392,26
599617343593168768,29
599617343600854272,31
599617343608539776,33
599617343616225152,36
599617343623910656,29
599617343631596032,16
599617343639281536,0
599617343646966912,-14
599617343654652416,-29
599617343662337920,-38
599617343670023296,-43
599617343677708800,-48
599617343685394176,-50
599617343693079680,-50
599617343700765000,-48
599617343708450560,-45
599617343716136064,-43
599617343723821440,-43
599617343731506944,-43
599617343739192320,-38
599617343746877824,-33
599617343754563200,-33
599617343762248704,-29
599617343769934208,-26
599617343777619584,-26
599617343785305088,-26
599617343792990464,-21
599617343800675968,-19
599617343808361344,-21
599617343816046848,-21
599617343823732352,-21
599617343831417728,-19
599617343839103232,-19
599617343846788608,-16
599617343854474112,-16
599617343862159616,-21
599617343869844992,-21
599617343877530496,-21
599617343885215872,-19
599617343892901376,-19
599617343900586752,-21
599617343908272256,-21
599617343915957760,-19
599617343923643136,-19
599617343931328640,-19
599617343939014016,-16
599617343946699520,-14
599617343954384896,-14
599617343962070400,-16
599617343969755904,-16
599617343977441280,-14
599617343985126784,-12
599617343992812160,-12
599617344000497664,-14
599617344008183040,-12
599617344015868544,-9
599617344023554048,-14
599617344031239424,-14
599617344038924928,-12
599617344046610304,-19
599617344054295808,-19
599617344061981184,4
599617344069666688,31
599617344077352192,29
599617344085037568,14
599617344092723072,2
599617344100408448,-12
599617344108093952,-21
599617344115779456,-14
599617344123464832,-9
599617344131150336,-14
599617344138835712,-14
599617344146521216,-9
599617344154206592,-7
599617344161892096,-12
599617344169577600,-29
599617344177262976,-111
599617344184948480,-198
599617344192633856,-50
599617344200319360,403
599617344208004736,766
599617344215690240,522
599617344223375744,-108
599617344231061120,-333
599617344238746624,-166
599617344246432000,-101
599617344254117504,-55
599617344261802829,21
599617344269488384,-7
599617344277173888,-38
599617344284859264,-7
599617344292544768,0
599617344300230144,-12
599617344307915648,0
599617344315601024,4
599617344323286528,2
599617344330972032,7
599617344338657408,12
599617344346342912,14
599617344354028288,19
599617344361713792,26
599617344369399168,29
599617344377084672,26
599617344384770176,33
599617344392455552,41
599617344400141056,45
599617344407826432,48
599617344415511936,53
599617344423197440,58
599617344430882816,65
599617344438568320,65
599617344446253696,70
599617344453939200,72
599617344461624576,70
599617344469310080,58
599617344476995584,38
599617344484680960,14
599617344492366464,-9
599617344500051840,-26
599617344507737344,-36
599617344515422720,-45
599617344523108224,-53
599617344530793728,-53
599617344538479104,-53
599617344546164608,-50
599617344553849984,-48
599617344561535488,-45
599617344569220864,-43
599617344576906368,-38
599617344584591872,-38
599617344592277248,-38
599617344599962752,-36
599617344607648128,-33
599617344615333632,-31
599617344623019008,-29
599617344630704512,-26
599617344638390016,-29
599617344646075392,-26
599617344653760896,-24
599617344661446272,-29
599617344669131776,-29
599617344676817152,-24
599617344684502656,-24
599617344692188160,-21
599617344699873536,-21
599617344707559040,-24
599617344715244416,-24
599617344722929920,-24
599617344730615424,-24
599617344738300800,-26
599617344745986304,-26
599617344753671680,-29
599617344761357184,-29
599617344769042560,-29
599617344776728064,-31
599617344784413568,-33
599617344792098944,-31
599617344799784448,-29
599617344807469824,-33
599617344815155328,-33
599617344822840654,-16
599617344830526208,12
599617344838211712,16
599617344845897088,7
599617344853582592,0
599617344861267968,-19
599617344868953472,-33
599617344876638848,-29
599617344884324352,-24
599617344892009856,-29
599617344899695232,-29
599617344907380736,-24
599617344915066112,-29
599617344922751616,-29
599617344930436992,-29
599617344938122496,-74
599617344945808000,-176
599617344953493376,-174
599617344961178880,128
599617344968864256,570
599617344976549760,647
599617344984235264,159
599617344991920640,-292
599617344999606144,-256
599617345007291520,-128
599617345014977024,-101
599617345022662400,-21
599617345030347904,4
599617345038033408,-45
599617345045718784,-33
599617345053404288,-4
599617345061089664,-16
599617345068775168,-19
599617345076460544,-4
599617345084146048,0
599617345091831552,0
599617345099516928,2
599617345107202432,4
599617345114887808,12
599617345122573312,14
599617345130258688,14
599617345137944192,19
599617345145629696,26
599617345153315072,26
599617345161000576,29
599617345168685952,38
599617345176371456,43
599617345184056832,45
599617345191742336,53
599617345199427840,55
599617345207113216,58
599617345214798720,60
599617345222484096,60
599617345230169600,55
599617345237854976,36
599617345245540480,9
599617345253225984,-14
599617345260911360,-29
599617345268596864,-38
599617345276282240,-50
599617345283967744,-55
599617345291653248,-55
599617345299338624,-55
599617345307024128,-55
599617345314709504,-53
599617345322395008,-48
599617345330080384,-45
599617345337765888,-48
599617345345451392,-43
599617345353136768,-43
599617345360822272,-43
599617345368507648,-41
599617345376193152,-36
599617345383878479,-33
599617345391564032,-33
599617345399249536,-33
599617345406934912,-29
599617345414620416,-26
599617345422305792,-24
599617345429991296,-21
599617345437676672,-24
599617345445362176,-24
599617345453047680,-24
599617345460733056,-26
599617345468418560,-26
599617345476103936,-21
599617345483789440,-24
599617345491474816,-24
599617345499160320,-24
599617345506845824,-26
599617345514531200,-29
599617345522216704,-31
599617345529902080,-24
599617345537587584,-7
599617345545273088,12
599617345552958464,12
599617345560643968,7
599617345568329344,-4
599617345576014848,-26
599617345583700224,-36
599617345591385728,-29
599617345599071232,-24
599617345606756608,-24
599617345614442112,-24
599617345622127488,-24
599617345629812992,-24
599617345637498368,-21
599617345645183872,-26
599617345652869376,-72
599617345660554752,-169
599617345668240256,-159
599617345675925632,145
599617345683611136,572
599617345691296512,621
599617345698982016,142
599617345706667520,-261
599617345714352896,-217
599617345722038400,-108
599617345729723776,-82
599617345737409280,-12
599617345745094656,0
599617345752780160,-38
599617345760465664,-26
599617345768151040,-2
599617345775836544,-9
599617345783521920,-9
599617345791207424,0
599617345798892800,0
599617345806578304,0
599617345814263808,7
599617345821949184,12
599617345829634688,12
599617345837320064,16
599617345845005568,24
599617345852691072,24
599617345860376448,24
599617345868061952,31
599617345875747328,36
599617345883432832,38
599617345891118208,43
599617345898803712,48
599617345906489216,48
599617345914174592,53
599617345921860096,58
599617345929545472,55
599617345937230976,53
599617345944916304,45
599617345952602112,31
599617345960287872,9
599617345967973760,-12
599617345975659520,-24
599617345983345280,-31
599617345991031040,-41
599617345998716928,-43
599617346006402688,-41
599617346014088448,-41
599617346021774336,-43
599617346029460096,-43
599617346037145856,-41
599617346044831744,-36
599617346052517504,-36
599617346060203264,-33
599617346067889024,-29
599617346075574912,-29
599617346083260672,-29
599617346090946432,-24
599617346098632320,-19
599617346106318080,-19
599617346114003840,-16
599617346121689728,-14
599617346129375488,-12
599617346137061248,-9
599617346144747008,-12
599617346152432896,-12
599617346160118656,-12
599617346167804416,-9
599617346175490304,-9
599617346183176064,-9
599617346190861824,-9
599617346198547712,-9
599617346206233472,-9
599617346213919232,-9
599617346221604992,-12
599617346229290880,-7
599617346236976640,12
599617346244662400,31
599617346252348288,29
599617346260034048,24
599617346267719808,14
599617346275405568,-9
599617346283091456,-19
599617346290777216,-9
599617346298462976,-7
599617346306148864,-12
599617346313834624,-7
599617346321520384,-4
599617346329206272,-7
599617346336892032,-7
599617346344577792,-16
599617346352263552,-82
599617346359949440,-171
599617346367635200,-94
599617346375320960,261
599617346383006848,630
599617346390692608,543
599617346398378368,36
599617346406064256,-246
599617346413750016,-152
599617346421435776,-77
599617346429121536,-48
599617346436807424,2
599617346444493184,-12
599617346452178944,-36
599617346459864832,-14
599617346467550592,-4
599617346475236352,-14
599617346482922240,-12
599617346490608000,-2
599617346498293760,0
599617346505979564,2
599617346513664256,2
599617346521348992,7
599617346529033600,9
599617346536718336,7
599617346544402944,9
599617346552087680,14
599617346559772416,19
599617346567457024,21
599617346575141760,26
599617346582826368,31
599617346590511104,33
599617346598195712,33
599617346605880448,38
599617346613565184,41
599617346621249792,41
599617346628934528,43
599617346636619136,41
599617346644303872,29
599617346651988608,12
599617346659673216,-4
599617346667357952,-21
599617346675042560,-36
599617346682727296,-38
599617346690412032,-41
599617346698096640,-48
599617346705781376,-48
599617346713465984,-43
599617346721150720,-45
599617346728835328,-45
599617346736520064,-43
599617346744204800,-41
599617346751889408,-41
599617346759574144,-36
599617346767258752,-33
599617346774943488,-36
599617346782628224,-36
599617346790312832,-26
599617346797997568,-24
599617346805682176,-26
599617346813366912,-29
599617346821051520,-24
599617346828736256,-16
599617346836420992,-19
599617346844105600,-21
599617346851790336,-14
599617346859474944,-9
599617346867159680,-12
599617346874844416,-12
599617346882529024,-7
599617346890213760,-9
599617346897898368,-14
599617346905583104,-12
599617346913267840,-9
599617346920952448,-12
599617346928637184,0
599617346936321792,24
599617346944006528,31
599617346951691136,19
599617346959375872,16
599617346967060608,7
599617346974745216,-12
599617346982429952,-16
599617346990114560,-7
599617346997799296,-4
599617347005484032,-9
599617347013168640,-9
599617347020853376,-7
599617347028537984,-4
599617347036222720,-2
599617347043907456,-24
599617347051592064,-101
599617347059276800,-164
599617347066961436,-21
599617347074646912,352
599617347082332416,618
599617347090017792,393
599617347097703296,-84
599617347105388672,-229
599617347113074176,-111
599617347120759552,-62
599617347128445056,-31
599617347136130560,-2
599617347143815936,-21
599617347151501440,-24
599617347159186816,-4
599617347166872320,-4
599617347174557696,-7
599617347182243200,-2
599617347189928704,2
599617347197614080,7
599617347205299584,9
599617347212984960,9
599617347220670464,12
599617347228355968,16
599617347236041344,19
599617347243726848,24
599617347251412224,24
599617347259097728,26
599617347266783104,31
599617347274468608,33
599617347282154112,36
599617347289839488,43
599617347297524992,45
599617347305210368,48
599617347312895872,53
599617347320581248,48
599617347328266752,43
599617347335952256,43
599617347343637632,31
599617347351323136,9
599617347359008512,-4
599617347366694016,-12
599617347374379392,-19
599617347382064896,-26
599617347389750400,-29
599617347397435776,-26
599617347405121280,-26
599617347412806656,-26
599617347420492160,-26
599617347428177536,-21
599617347435863040,-19
599617347443548544,-16
599617347451233920,-16
599617347458919424,-14
599617347466604800,-12
599617347474290304,-9
599617347481975808,-7
599617347489661184,-7
599617347497346688,-9
599617347505032064,-7
599617347512717568,0
599617347520402944,-2
599617347528088448,-4
599617347535773952,-2
599617347543459328,2
599617347551144832,0
599617347558830208,-2
599617347566515712,0
599617347574201088,2
599617347581886592,0
599617347589572096,0
599617347597257472,0
599617347604942976,2
599617347612628352,2
599617347620313856,0
599617347627999265,0
599617347635684736,2
599617347643370240,2
599617347651055616,0
599617347658741120,0
599617347666426496,2
599617347674112000,2
599617347681797376,-2
599617347689482880,4
599617347697168384,31
599617347704853760,41
599617347712539264,33
599617347720224640,36
599617347727910144,26
599617347735595520,2
599617347743281024,-4
599617347750966528,2
599617347758651904,7
599617347766337408,2
599617347774022784,2
599617347781708288,4
599617347789393792,4
599617347797079168,4
599617347804764672,-7
599617347812450048,-70
599617347820135552,-149
599617347827820928,-50
599617347835506432,299
599617347843191936,618
599617347850877312,483
599617347858562816,12
599617347866248192,-203
599617347873933696,-101
599617347881619072,-41
599617347889304576,-29
599617347896990080,2
599617347904675456,-2
599617347912360960,-16
599617347920046336,-2
599617347927731840,9
599617347935417216,4
599617347943102720,7
599617347950788224,14
599617347958473600,16
599617347966159104,14
599617347973844480,16
599617347981529984,21
599617347989215360,26
599617347996900864,29
599617348004586368,31
599617348012271744,33
599617348019957248,36
599617348027642624,38
599617348035328128,41
599617348043013504,43
599617348050699008,50
599617348058384512,53
599617348066069888,53
599617348073755392,50
599617348081440768,55
599617348089126272,55
599617348096811776,53
599617348104497152,43
599617348112182656,31
599617348119868032,14
599617348127553536,4
599617348135238912,0
599617348142924416,-9
599617348150609920,-14
599617348158295296,-14
599617348165980800,-7
599617348173666176,-4
599617348181351680,-7
599617348189037090,-4
599617348196722560,0
599617348204408064,-2
599617348212093440,0
599617348219778944,4
599617348227464320,2
599617348235149824,2
599617348242835200,7
599617348250520704,9
599617348258206208,9
599617348265891584,9
599617348273577088,14
599617348281262464,14
599617348288947968,9
599617348296633344,12
599617348304318848,16
599617348312004352,14
599617348319689728,12
599617348327375232,14
599617348335060608,16
599617348342746112,19
599617348350431616,16
599617348358116992,14
599617348365802496,16
599617348373487872,16
599617348381173376,19
599617348388858752,19
599617348396544256,19
599617348404229760,19
599617348411915136,24
599617348419600640,21
599617348427286016,21
599617348434971520,21
599617348442656896,21
599617348450342400,24
599617348458027904,24
599617348465713280,24
599617348473398784,24
599617348481084160,26
599617348488769664,26
599617348496455040,24
599617348504140544,26
599617348511826048,29
599617348519511424,29
599617348527196928,26
599617348534882304,26
599617348542567808,26
599617348550253184,29
599617348557938688,29
599617348565624192,26
599617348573309568,26
599617348580995072,26
599617348588680448,31
599617348596365952,29
599617348604051328,29
599617348611736832,31
599617348619422336,31
599617348627107712,33
599617348634793216,36
599617348642478592,31
599617348650164096,31
599617348657849600,33
599617348665534976,33
599617348673220480,33
599617348680905856,31
599617348688591360,31
599617348696276736,33
599617348703962240,33
599617348711647744,31
599617348719333120,31
599617348727018624,31
599617348734704000,33
599617348742389504,33
599617348750074915,36
599617348757760384,38
599617348765445888,36
599617348773131264,26
599617348780816768,31
599617348788502144,55
599617348796187648,74
599617348803873024,70
599617348811558528,58
599617348819244032,48
599617348826929408,33
599617348834614912,29
599617348842300288,36
599617348849985792,41
599617348857671168,36
599617348865356672,41
599617348873042176,45
599617348880727552,45
599617348888413056,41
599617348896098432,2
599617348903783936,-96
599617348911469440,-125
599617348919154816,123
599617348926840320,580
599617348934525696,785
599617348942211200,422
599617348949896576,-60
599617348957582080,-132
599617348965267584,-19
599617348972952960,-7
599617348980638464,4
599617348988323840,21
599617348996009344,4
599617349003694720,9
599617349011380224,26
599617349019065728,24
599617349026751104,24
599617349034436608,31
599617349042121984,31
599617349049807488,31
599617349057492864,36
599617349065178368,38
599617349072863872,43
599617349080549248,43
599617349088234752,43
599617349095920128,43
599617349103605632,43
599617349111291008,48
599617349118976512,53
599617349126662016,53
599617349134347392,53
599617349142032896,55
599617349149718272,55
599617349157403776,55
599617349165089152,58
599617349172774656,60
599617349180460160,60
599617349188145536,60
599617349195831040,60
599617349203516416,60
599617349211201920,53
599617349218887424,43
599617349226572800,36
599617349234258304,31
599617349241943680,29
599617349249629184,24
599617349257314560,21
599617349265000064,21
599617349272685568,21
599617349280370944,21
599617349288056448,24
599617349295741824,24
599617349303427328,26
599617349311112740,29
599617349318798208,26
599617349326483712,26
599617349334169088,31
599617349341854592,31
599617349349539968,33
599617349357225472,36
599617349364910848,41
599617349372596352,43
599617349380281856,43
599617349387967232,41
599617349395652736,38
599617349403338112,41
599617349411023616,41
599617349418708992,38
599617349426394496,38
599617349434080000,38
599617349441765376,36
599617349449450880,36
599617349457136256,41
599617349464821760,38
599617349472507264,36
599617349480192640,38
599617349487878144,43
599617349495563520,43
599617349503249024,41
599617349510934400,41
599617349518619904,41
599617349526305408,41
599617349533990784,41
599617349541676288,43
599617349549361664,43
599617349557047168,41
599617349564732544,41
599617349572418048,43
599617349580103552,41
599617349587788928,38
599617349595474432,41
599617349603159808,43
599617349610845312,43
599617349618530688,41
599617349626216192,41
599617349633901696,43
599617349641587072,41
599617349649272576,38
599617349656957952,41
599617349664643456,43
599617349672328832,41
599617349680014336,43
599617349687699840,45
599617349695385216,43
599617349703070720,43
599617349710756096,43
599617349718441600,43
599617349726126976,41
599617349733812480,41
599617349741497984,41
599617349749183360,41
599617349756868864,43
599617349764554240,43
599617349772239744,41
599617349779925248,45
599617349787610624,53
599617349795296128,50
599617349802981504,45
599617349810667008,48
599617349818352384,48
599617349826037888,45
599617349833723392,43
599617349841408768,45
599617349849094272,41
599617349856779648,33
599617349864465152,38
599617349872150565,62
599617349879836032,84
599617349887521536,84
599617349895206912,67
599617349902892416,55
599617349910577792,41
599617349918263296,31
599617349925948672,38
599617349933634176,43
599617349941319680,41
599617349949005056,41
599617349956690560,43
599617349964375936,41
599617349972061440,38
599617349979746816,4
599617349987432320,-103
599617349995117824,-159
599617350002803200,79
599617350010488704,584
599617350018174080,887
599617350025859584,565
599617350033545088,4
599617350041230464,-149
599617350048915968,-31
599617350056601344,-4
599617350064286848,-16
599617350071972224,-2
599617350079657728,-4
599617350087343232,-2
599617350095028608,9
599617350102714112,12
599617350110399488,16
599617350118084992,19
599617350125770368,19
599617350133455872,24
599617350141141376,26
599617350148826752,29
599617350156512256,31
599617350164197632,33
599617350171883136,33
599617350179568512,33
599617350187254016,33
599617350194939520,36
599617350202624896,36
599617350210310400,36
599617350217995776,33
599617350225681280,36
599617350233366656,33
599617350241052160,33
599617350248737664,36
599617350256423040,43
599617350264108544,50
599617350271793920,53
599617350279479424,58
599617350287164800,62
599617350294850304,58
599617350302535808,48
599617350310221184,38
599617350317906688,33
599617350325592064,31
599617350333277568,29
599617350340963072,26
599617350348648448,24
599617350356333952,24
599617350364019328,21
599617350371704832,24
599617350379390208,24
599617350387075712,21
599617350394761216,24
599617350402446592,24
599617350410132096,21
599617350417817472,21
599617350425502976,24
599617350433188390,24
599617350440873856,26
599617350448559360,26
599617350456244736,26
599617350463930240,29
599617350471615616,29
599617350479301120,26
599617350486986496,29
599617350494672000,31
599617350502357504,29
599617350510042880,29
599617350517728384,29
599617350525413760,29
599617350533099264,29
599617350540784640,31
599617350548470144,31
599617350556155648,29
599617350563841024,29
599617350571526528,29
599617350579211904,29
599617350586897408,29
599617350594582912,29
599617350602268288,26
599617350609953792,26
599617350617639168,26
599617350625324672,26
599617350633010048,26
599617350640695552,26
599617350648381056,26
599617350656066432,26
599617350663751936,26
599617350671437312,29
599617350679122816,26
599617350686808192,26
599617350694493696,26
599617350702179200,26
599617350709864576,26
599617350717550080,26
599617350725235456,29
599617350732920960,26
599617350740606336,24
599617350748291840,26
599617350755977344,29
599617350763662720,29
599617350771348224,29
599617350779033600,29
599617350786719104,29
599617350794404480,29
599617350802089984,29
599617350809775488,29
599617350817460864,29
599617350825146368,31
599617350832831744,31
599617350840517248,31
599617350848202752,31
599617350855888128,31
599617350863573632,29
599617350871259008,31
599617350878944512,31
599617350886629888,31
599617350894315392,29
599617350902000896,26
599617350909686272,16
599617350917371776,16
599617350925057152,43
599617350932742656,70
599617350940428032,62
599617350948113536,50
599617350955799040,45
599617350963484416,29
599617350971169920,16
599617350978855296,24
599617350986540800,29
599617350994226219,24
599617351001911680,24
599617351009597184,26
599617351017282560,24
599617351024968064,21
599617351032653440,-9
599617351040338944,-116
599617351048024320,-188
599617351055709824,24
599617351063395328,558
599617351071080704,959
599617351078766208,698
599617351086451584,72
599617351094137088,-166
599617351101822464,-41
599617351109507968,7
599617351117193472,-48
599617351124878848,-55
599617351132564352,-31
599617351140249728,-29
599617351147935232,-29
599617351155620736,-16
599617351163306112,-12
599617351170991616,-9
599617351178676992,-4
599617351186362496,-2
599617351194047872,0
599617351201733376,2
599617351209418880,4
599617351217104256,7
599617351224789760,7
599617351232475136,9
599617351240160640,12
599617351247846016,12
599617351255531520,12
599617351263217024,12
599617351270902400,12
599617351278587904,14
599617351286273280,16
599617351293958784,16
599617351301644160,16
599617351309329664,19
599617351317015168,19
599617351324700544,21
599617351332386048,24
599617351340071424,29
599617351347756928,29
599617351355442304,24
599617351363127808,19
599617351370813312,12
599617351378498688,9
599617351386184192,4
599617351393869568,4
599617351401555072,2
599617351409240448,2
599617351416925952,4
599617351424611456,4
599617351432296832,4
599617351439982336,4
599617351447667712,4
599617351455353216,7
599617351463038720,7
599617351470724096,7
599617351478409600,7
599617351486094976,7
599617351493780480,9
599617351501465856,12
599617351509151360,12
599617351516836864,14
599617351524522240,16
599617351532207744,16
599617351539893120,16
599617351547578624,16
599617351555264044,19
599617351562949504,19
599617351570635008,19
599617351578320384,16
599617351586005888,16
599617351593691264,16
599617351601376768,16
599617351609062144,14
599617351616747648,14
599617351624433152,16
599617351632118528,14
599617351639804032,12
599617351647489408,12
599617351655174912,14
599617351662860288,12
599617351670545792,12
599617351678231296,12
599617351685916672,12
599617351693602176,12
599617351701287552,9
599617351708973056,12
599617351716658560,14
599617351724343936,12
599617351732029440,9
599617351739714816,9
599617351747400320,12
599617351755085696,12
599617351762771200,12
599617351770456704,12
599617351778142080,12
599617351785827584,12
599617351793512960,12
599617351801198464,12
599617351808883840,14
599617351816569344,12
599617351824254848,12
599617351831940224,16
599617351839625728,16
599617351847311104,14
599617351854996608,14
599617351862681984,14
599617351870367488,12
599617351878052992,14
599617351885738368,14
599617351893423872,12
599617351901109248,12
599617351908794752,16
599617351916480128,12
599617351924165632,9
599617351931851136,9
599617351939536512,0
599617351947222016,-4
599617351954907392,19
599617351962592896,50
599617351970278272,53
599617351977963776,38
599617351985649280,31
599617351993334656,12
599617352001020160,-2
599617352008705536,7
599617352016391040,14
599617352024076544,7
599617352031761920,7
599617352039447424,12
599617352047132800,9
599617352054818304,7
599617352062503680,-19
599617352070189184,-123
599617352077874688,-212
599617352085560064,-29
599617352093245568,502
599617352100930944,971
599617352108616448,792
599617352116301869,130
599617352123987328,-207
599617352131672832,-89
599617352139358208,-4
599617352147043712,-58
599617352154729088,-77
599617352162414592,-53
599617352170099968,-48
599617352177785472,-50
599617352185470976,-38
599617352193156352,-29
599617352200841856,-26
599617352208527232,-24
599617352216212736,-16
599617352223898112,-12
599617352231583616,-9
599617352239269120,-9
599617352246954496,-7
599617352254640000,-4
599617352262325376,-2
599617352270010880,0
599617352277696384,0
599617352285381760,2
599617352293067264,2
599617352300752640,2
599617352308438144,2
599617352316123520,4
599617352323809024,4
599617352331494528,4
599617352339179904,7
599617352346865408,7
599617352354550784,9
599617352362236288,9
599617352369921664,12
599617352377607168,9
599617352385292672,4
599617352392978048,0
599617352400663552,-4
599617352408348928,-7
599617352416034432,-12
599617352423719808,-14
599617352431405312,-16
599617352439090816,-16
599617352446776192,-16
599617352454461696,-16
599617352462147072,-14
599617352469832576,-14
599617352477517952,-14
599617352485203456,-12
599617352492888960,-9
599617352500574336,-9
599617352508259840,-7
599617352515945216,-4
599617352523630720,-2
599617352531316096,-2
599617352539001600,0
599617352546687104,0
599617352554372480,2
599617352562057984,2
599617352569743360,4
599617352577428864,4
599617352585114368,4
599617352592799744,7
599617352600485248,4
599617352608170624,4
599617352615856128,7
599617352623541504,4
599617352631227008,7
599617352638912512,9
599617352646597888,9
599617352654283392,7
599617352661968768,7
599617352669654272,7
599617352677339694,4
599617352685025152,4
599617352692710656,7
599617352700396032,7
599617352708081536,7
599617352715766912,4
599617352723452416,4
599617352731137792,7
599617352738823296,7
599617352746508800,7
599617352754194176,7
599617352761879680,7
599617352769565056,7
599617352777250560,7
599617352784935936,7
599617352792621440,9
599617352800306944,9
599617352807992320,12
599617352815677824,12
599617352823363200,12
599617352831048704,12
599617352838734208,12
599617352846419584,12
599617352854105088,12
599617352861790464,9
599617352869475968,9
599617352877161344,12
599617352884846848,12
599617352892532352,9
599617352900217728,7
599617352907903232,4
599617352915588608,2
599617352923274112,-4
599617352930959488,0
599617352938644992,31
599617352946330496,53
599617352954015872,45
599617352961701376,36
599617352969386752,19
599617352977072256,-2
599617352984757632,-2
599617352992443136,9
599617353000128640,7
599617353007814016,2
599617353015499520,4
599617353023184896,4
599617353030870400,4
599617353038555776,-2
599617353046241280,-74
599617353053926784,-195
599617353061612160,-147
599617353069297664,273
599617353076983040,843
599617353084668544,945
599617353092353920,367
599617353100039424,-174
599617353107724928,-181
599617353115410304,-36
599617353123095808,-29
599617353130781184,-58
599617353138466688,-60
599617353146152192,-48
599617353153837568,-41
599617353161523072,-36
599617353169208448,-31
599617353176893952,-24
599617353184579328,-19
599617353192264832,-14
599617353199950336,-9
599617353207635712,-4
599617353215321216,0
599617353223006592,2
599617353230692096,4
599617353238377519,4
599617353246062976,9
599617353253748480,12
599617353261433856,12
599617353269119360,12
599617353276804736,14
599617353284490240,16
599617353292175616,14
599617353299861120,14
599617353307546624,16
599617353315232000,21
599617353322917504,24
599617353330602880,26
599617353338288384,29
599617353345973760,29
599617353353659264,24
599617353361344768,16
599617353369030144,7
599617353376715648,2
599617353384401024,-2
599617353392086528,-7
599617353399772032,-9
599617353407457408,-14
599617353415142912,-16
599617353422828288,-16
599617353430513792,-16
599617353438199168,-14
599617353445884672,-12
599617353453570176,-12
599617353461255552,-9
599617353468941056,-7
599617353476626432,-7
599617353484311936,-4
599617353491997312,0
599617353499682816,0
599617353507368320,2
599617353515053696,7
599617353522739200,9
599617353530424576,9
599617353538110080,9
599617353545795456,7
599617353553480960,7
599617353561166464,7
599617353568851840,7
599617353576537344,7
599617353584222720,7
599617353591908224,7
599617353599593600,7
599617353607279104,7
599617353614964608,7
599617353622649984,7
599617353630335488,7
599617353638020864,4
599617353645706368,4
599617353653391744,4
599617353661077248,4
599617353668762752,4
599617353676448128,4
599617353684133632,4
599617353691819008,9
599617353699504512,9
599617353707190016,7
599617353714875392,7
599617353722560896,9
599617353730246272,7
599617353737931776,4
599617353745617152,7
599617353753302656,7
599617353760988160,7
599617353768673536,7
599617353776359040,4
599617353784044416,4
599617353791729920,7
599617353799415344,4
599617353807100800,2
599617353814786304,2
599617353822471680,-2
599617353830157184,-7
599617353837842560,0
599617353845528064,24
599617353853213440,43
599617353860898944,41
599617353868584448,29
599617353876269824,12
599617353883955328,-4
599617353891640704,-4
599617353899326208,4
599617353907011584,0
599617353914697088,-4
599617353922382592,-2
599617353930067968,0
599617353937753472,0
599617353945438848,-4
599617353953124352,-60
599617353960809856,-176
599617353968495232,-159
599617353976180736,210
599617353983866112,722
599617353991551616,797
599617353999236992,219
599617354006922496,-297
599617354014608000,-246
599617354022293376,-99
599617354029978880,-77
599617354037664256,-9
599617354045349760,4
599617354053035136,-43
599617354060720640,-26
599617354068406144,-2
599617354076091520,-12
599617354083777024,-9
599617354091462400,2
599617354099147904,0
599617354106833280,0
599617354114518784,9
599617354122204288,9
599617354129889664,12
599617354137575168,14
599617354145260544,19
599617354152946048,21
599617354160631424,24
599617354168316928,29
599617354176002432,31
599617354183687808,33
599617354191373312,36
599617354199058688,38
599617354206744192,45
599617354214429696,53
599617354222115072,53
599617354229800576,55
599617354237485952,60
599617354245171456,60
599617354252856832,48
599617354260542336,29
599617354268227840,2
599617354275913216,-16
599617354283598720,-31
599617354291284096,-45
599617354298969600,-53
599617354306654976,-58
599617354314340480,-55
599617354322025984,-55
599617354329711360,-55
599617354337396864,-50
599617354345082240,-48
599617354352767744,-48
599617354360453173,-43
599617354368138624,-38
599617354375824128,-38
599617354383509504,-36
599617354391195008,-31
599617354398880384,-29
599617354406565888,-31
599617354414251264,-29
599617354421936768,-29
599617354429622272,-29
599617354437307648,-26
599617354444993152,-24
599617354452678528,-24
599617354460364032,-24
599617354468049408,-26
599617354475734912,-24
599617354483420416,-24
599617354491105792,-24
599617354498791296,-26
599617354506476672,-26
599617354514162176,-24
599617354521847680,-24
599617354529533056,-26
599617354537218560,-26
599617354544903936,-26
599617354552589440,-26
599617354560274816,-26
599617354567960320,-24
599617354575645824,-24
599617354583331200,-24
599617354591016704,-24
599617354598702080,-24
599617354606387584,-24
599617354614072960,-26
599617354621758464,-24
599617354629443968,-21
599617354637129344,-21
599617354644814848,-24
599617354652500224,-24
599617354660185728,-26
599617354667871104,-33
599617354675556608,-21
599617354683242112,7
599617354690927488,19
599617354698612992,7
599617354706298368,-2
599617354713983872,-12
599617354721669248,-31
599617354729354752,-31
599617354737040256,-21
599617354744725632,-24
599617354752411136,-26
599617354760096512,-24
