599616721723295104,-30
599616721730981376,-30
599616721738667648,-18
599616721746353920,-18
599616721754040320,-18
599616721761726592,-16
599616721769412864,-16
599616721777099136,-16
599616721784785408,-16
599616721792471680,-35
599616721800157952,-102
599616721807844224,-161
599616721815530496,-25
599616721823216896,311
599616721830903168,535
599616721838589440,343
599616721846275712,-119
599616721853961984,-325
599616721861648256,-184
599616721869334528,-74
599616721877020800,-37
599616721884707072,32
599616721892393472,30
599616721900079744,-18
599616721907765972,-4
599616721915452544,14
599616721923139072,2
599616721930825472,0
599616721938512000,9
599616721946198528,7
599616721953885056,4
599616721961571456,9
599616721969257984,11
599616721976944512,11
599616721984631040,14
599616721992317440,14
599616722000003968,21
599616722007690496,28
599616722015377024,28
599616722023063424,32
599616722030749952,42
599616722038436480,46
599616722046123008,51
599616722053809408,60
599616722061495936,67
599616722069182464,72
599616722076868992,74
599616722084555392,77
599616722092241920,74
599616722099928448,67
599616722107614976,53
599616722115301376,32
599616722122987904,9
599616722130674432,-16
599616722138360832,-39
599616722146047360,-53
599616722153733888,-60
599616722161420416,-65
599616722169106816,-65
599616722176793344,-63
599616722184479872,-56
599616722192166400,-53
599616722199852800,-56
599616722207539328,-49
599616722215225856,-44
599616722222912384,-49
599616722230598784,-49
599616722238285312,-42
599616722245971840,-42
599616722253658368,-42
599616722261344768,-37
599616722269031296,-30
599616722276717824,-32
599616722284404352,-32
599616722292090752,-28
599616722299777280,-25
599616722307463808,-25
599616722315150336,-25
599616722322836736,-23
599616722330523264,-23
599616722338209792,-23
599616722345896192,-21
599616722353582720,-18
599616722361269248,-21
599616722368955776,-18
599616722376642176,-16
599616722384328704,-18
599616722392015232,-21
599616722399701760,-18
599616722407388160,-14
599616722415074688,-14
599616722422761216,-16
599616722430447744,-16
599616722438134144,-16
599616722445820672,-16
599616722453507200,-14
599616722461193728,-11
599616722468880094,-14
599616722476566656,-16
599616722484253184,-16
599616722491939584,-14
599616722499626112,-14
599616722507312640,-11
599616722514999168,-14
599616722522685568,-18
599616722530372096,-16
599616722538058624,-14
599616722545745152,-16
599616722553431552,-18
599616722561118080,-16
599616722568804608,-16
599616722576491136,-14
599616722584177536,-16
599616722591864064,-16
599616722599550592,-14
599616722607237120,-14
599616722614923520,-14
599616722622610048,-14
599616722630296576,-14
599616722637983104,-11
599616722645669504,-11
599616722653356032,-14
599616722661042560,-11
599616722668729088,-9
599616722676415488,-11
599616722684102016,-11
599616722691788544,-9
599616722699474944,-7
599616722707161472,-11
599616722714848000,-14
599616722722534528,2
599616722730220928,21
599616722737907456,14
599616722745593984,0
599616722753280512,2
599616722760966912,-4
599616722768653440,-25
599616722776339968,-30
599616722784026496,-18
599616722791712896,-18
599616722799399424,-23
599616722807085952,-21
599616722814772480,-16
599616722822458880,-16
599616722830145408,-18
599616722837831936,-37
599616722845518464,-107
599616722853204864,-166
599616722860891392,-30
599616722868577920,313
599616722876264320,545
599616722883950848,348
599616722891637376,-121
599616722899323904,-325
599616722907010304,-182
599616722914696832,-79
599616722922383360,-37
599616722930069888,37
599616722937756288,28
599616722945442816,-23
599616722953129344,-4
599616722960815872,14
599616722968502272,-2
599616722976188800,-2
599616722983875328,7
599616722991561856,7
599616722999248256,4
599616723006934784,9
599616723014621312,11
599616723022307840,16
599616723029994212,18
599616723037680512,18
599616723045366784,23
599616723053053056,30
599616723060739328,35
599616723068425600,37
599616723076112000,44
599616723083798272,51
599616723091484544,56
599616723099170816,58
599616723106857088,65
599616723114543360,72
599616723122229632,74
599616723129915904,74
599616723137602176,72
599616723145288576,65
599616723152974848,53
599616723160661120,35
599616723168347392,7
599616723176033664,-23
599616723183719936,-44
599616723191406208,-56
599616723199092480,-65
599616723206778752,-67
599616723214465024,-70
599616723222151424,-67
599616723229837696,-63
599616723237523968,-60
599616723245210240,-63
599616723252896512,-60
599616723260582784,-56
599616723268269056,-51
599616723275955328,-51
599616723283641600,-46
599616723291328000,-42
599616723299014272,-42
599616723306700544,-39
599616723314386816,-35
599616723322073088,-35
599616723329759360,-32
599616723337445632,-30
599616723345131904,-28
599616723352818176,-25
599616723360504576,-25
599616723368190848,-28
599616723375877120,-28
599616723383563392,-23
599616723391249664,-23
599616723398935936,-25
599616723406622208,-23
599616723414308480,-23
599616723421994752,-25
599616723429681024,-25
599616723437367424,-23
599616723445053696,-23
599616723452739968,-23
599616723460426240,-21
599616723468112512,-23
599616723475798784,-21
599616723483485056,-21
599616723491171328,-21
599616723498857600,-21
599616723506544000,-18
599616723514230272,-18
599616723521916544,-18
599616723529602816,-18
599616723537289088,-21
599616723544975360,-18
599616723552661632,-18
599616723560347904,-18
599616723568034176,-16
599616723575720576,-16
599616723583406848,-18
599616723591093073,-18
599616723598779392,-16
599616723606465664,-16
599616723614151936,-14
599616723621838208,-14
599616723629524480,-18
599616723637210880,-18
599616723644897152,-16
599616723652583424,-16
599616723660269696,-18
599616723667955968,-18
599616723675642240,-18
599616723683328512,-16
599616723691014784,-16
599616723698701056,-16
599616723706387456,-11
599616723714073728,-11
599616723721760000,-16
599616723729446272,-11
599616723737132544,9
599616723744818816,16
599616723752505088,2
599616723760191360,-2
599616723767877632,-4
599616723775563904,-23
599616723783250304,-35
599616723790936576,-25
599616723798622848,-16
599616723806309120,-21
599616723813995392,-23
599616723821681664,-18
599616723829367936,-16
599616723837054208,-16
599616723844740480,-21
599616723852426880,-53
599616723860113152,-131
599616723867799424,-131
599616723875485696,98
599616723883171968,416
599616723890858240,446
599616723898544512,63
599616723906230784,-308
599616723913917056,-278
599616723921603456,-121
599616723929289728,-77
599616723936976000,4
599616723944662272,72
599616723952348544,18
599616723960034816,-9
599616723967721088,21
599616723975407360,21
599616723983093632,7
599616723990779904,16
599616723998466304,21
599616724006152576,16
599616724013838848,18
599616724021525120,23
599616724029211392,23
599616724036897664,25
599616724044583936,30
599616724052270208,35
599616724059956480,37
599616724067642880,42
599616724075329152,46
599616724083015424,49
599616724090701696,56
599616724098387968,65
599616724106074240,70
599616724113760512,74
599616724121446784,79
599616724129133056,84
599616724136819456,84
599616724144505728,84
599616724152191934,79
599616724159878528,70
599616724167565184,53
599616724175251968,28
599616724182938624,-4
599616724190625280,-28
599616724198312064,-46
599616724205998720,-60
599616724213685504,-65
599616724221372160,-65
599616724229058816,-65
599616724236745600,-63
599616724244432256,-63
599616724252118912,-60
599616724259805696,-58
599616724267492352,-56
599616724275179136,-53
599616724282865792,-49
599616724290552448,-46
599616724298239232,-46
599616724305925888,-42
599616724313612544,-39
599616724321299328,-39
599616724328985984,-35
599616724336672768,-30
599616724344359424,-30
599616724352046080,-28
599616724359732864,-28
599616724367419520,-23
599616724375106176,-23
599616724382792960,-23
599616724390479616,-23
599616724398166400,-21
599616724405853056,-21
599616724413539712,-21
599616724421226496,-21
599616724428913152,-21
599616724436599808,-18
599616724444286592,-18
599616724451973248,-18
599616724459660032,-18
599616724467346688,-18
599616724475033344,-18
599616724482720128,-16
599616724490406784,-16
599616724498093440,-16
599616724505780224,-18
599616724513466880,-16
599616724521153664,-14
599616724528840320,-16
599616724536526976,-16
599616724544213760,-14
599616724551900416,-14
599616724559587072,-14
599616724567273856,-14
599616724574960512,-11
599616724582647296,-11
599616724590333952,-11
599616724598020608,-14
599616724605707392,-11
599616724613394048,-11
599616724621080704,-11
599616724628767488,-11
599616724636454144,-11
599616724644140928,-11
599616724651827584,-11
599616724659514240,-9
599616724667201024,-11
599616724674887680,-11
599616724682574336,-9
599616724690261120,-11
599616724697947776,-11
599616724705634560,-9
599616724713321317,-9
599616724721007616,-9
599616724728693888,-7
599616724736380160,-9
599616724744066432,-11
599616724751752704,-9
599616724759439104,-9
599616724767125376,-11
599616724774811648,-14
599616724782497920,-7
599616724790184192,14
599616724797870464,18
599616724805556736,0
599616724813243008,-2
599616724820929280,2
599616724828615680,-16
599616724836301952,-35
599616724843988224,-28
599616724851674496,-16
599616724859360768,-21
599616724867047040,-21
599616724874733312,-16
599616724882419584,-16
599616724890105856,-16
599616724897792128,-21
599616724905478528,-51
599616724913164800,-133
599616724920851072,-147
599616724928537344,70
599616724936223616,414
599616724943909888,519
599616724951596160,191
599616724959282432,-236
599616724966968704,-297
599616724974655104,-131
599616724982341376,-65
599616724990027648,-11
599616724997713920,42
599616725005400192,2
599616725013086464,-25
599616725020772736,2
599616725028459008,7
599616725036145280,-7
599616725043831680,0
599616725051517952,4
599616725059204224,0
599616725066890496,2
599616725074576768,7
599616725082263040,7
599616725089949312,11
599616725097635584,14
599616725105321856,18
599616725113008128,23
599616725120694528,28
599616725128380800,30
599616725136067072,35
599616725143753344,39
599616725151439616,46
599616725159125888,51
599616725166812160,58
599616725174498432,67
599616725182184704,72
599616725189871104,74
599616725197557376,74
599616725205243648,70
599616725212929920,65
599616725220616192,51
599616725228302464,30
599616725235988736,2
599616725243675008,-23
599616725251361280,-42
599616725259047680,-56
599616725266733952,-65
599616725274420178,-65
599616725282106496,-65
599616725289792768,-65
599616725297479040,-60
599616725305165312,-56
599616725312851584,-53
599616725320537984,-51
599616725328224256,-51
599616725335910528,-49
599616725343596800,-49
599616725351283072,-49
599616725358969344,-44
599616725366655616,-39
599616725374341888,-42
599616725382028160,-39
599616725389714560,-35
599616725397400832,-32
599616725405087104,-32
599616725412773376,-28
599616725420459648,-28
599616725428145920,-28
599616725435832192,-28
599616725443518464,-25
599616725451204736,-25
599616725458891008,-25
599616725466577408,-23
599616725474263680,-23
599616725481949952,-23
599616725489636224,-23
599616725497322496,-23
599616725505008768,-21
599616725512695040,-18
599616725520381312,-21
599616725528067584,-21
599616725535753984,-18
599616725543440256,-18
599616725551126528,-18
599616725558812800,-18
599616725566499072,-18
599616725574185344,-18
599616725581871616,-18
599616725589557888,-18
599616725597244160,-18
599616725604930560,-18
599616725612616832,-18
599616725620303104,-18
599616725627989376,-18
599616725635675648,-16
599616725643361920,-16
599616725651048192,-14
599616725658734464,-14
599616725666420736,-14
599616725674107008,-14
599616725681793408,-14
599616725689479680,-11
599616725697165952,-9
599616725704852224,-11
599616725712538496,-11
599616725720224768,-9
599616725727911040,-9
599616725735597312,-9
599616725743283584,-7
599616725750969984,-9
599616725758656256,-11
599616725766342528,-11
599616725774028800,-14
599616725781715072,-11
599616725789401344,-11
599616725797087616,-14
599616725804773888,-11
599616725812460160,-7
599616725820146560,-11
599616725827832832,-14
599616725835519039,-4
599616725843205504,14
599616725850892032,16
599616725858578688,7
599616725866265216,7
599616725873951744,4
599616725881638272,-16
599616725889324928,-30
599616725897011456,-21
599616725904697984,-16
599616725912384640,-21
599616725920071168,-21
599616725927757696,-18
599616725935444224,-16
599616725943130880,-18
599616725950817408,-25
599616725958503936,-77
599616725966190592,-154
599616725973877120,-100
599616725981563648,194
599616725989250176,496
599616725996936832,437
599616726004623360,0
599616726012309888,-318
599616726019996544,-240
599616726027683072,-100
599616726035369600,-63
599616726043056128,16
599616726050742784,46
599616726058429312,-11
599616726066115840,-16
599616726073802496,11
599616726081489024,2
599616726089175552,-4
599616726096862080,2
599616726104548736,4
599616726112235264,2
599616726119921792,4
599616726127608448,9
599616726135294976,11
599616726142981504,16
599616726150668032,18
599616726158354688,21
599616726166041216,25
599616726173727744,30
599616726181414400,37
599616726189100928,44
599616726196787456,51
599616726204473984,56
599616726212160640,63
599616726219847168,67
599616726227533696,74
599616726235220352,79
599616726242906880,79
599616726250593408,74
599616726258279936,70
599616726265966592,60
599616726273653120,42
599616726281339648,14
599616726289026304,-14
599616726296712832,-37
599616726304399360,-56
599616726312085888,-67
599616726319772544,-70
599616726327459072,-72
599616726335145600,-70
599616726342832256,-67
599616726350518784,-65
599616726358205312,-60
599616726365891840,-58
599616726373578496,-56
599616726381265024,-53
599616726388951552,-51
599616726396638248,-46
599616726404324608,-44
599616726412011008,-42
599616726419697408,-39
599616726427383936,-37
599616726435070336,-35
599616726442756736,-32
599616726450443136,-32
599616726458129536,-35
599616726465816064,-30
599616726473502464,-28
599616726481188864,-28
599616726488875264,-28
599616726496561664,-25
599616726504248192,-25
599616726511934592,-25
599616726519620992,-25
599616726527307392,-23
599616726534993792,-21
599616726542680320,-23
599616726550366720,-21
599616726558053120,-21
599616726565739520,-18
599616726573425920,-21
599616726581112448,-21
599616726588798848,-21
599616726596485248,-18
599616726604171648,-18
599616726611858048,-18
599616726619544448,-18
599616726627230976,-18
599616726634917376,-18
599616726642603776,-16
599616726650290176,-16
599616726657976576,-16
599616726665663104,-16
599616726673349504,-16
599616726681035904,-14
599616726688722304,-14
599616726696408704,-16
599616726704095232,-16
599616726711781632,-14
599616726719468032,-14
599616726727154432,-16
599616726734840832,-14
599616726742527360,-11
599616726750213760,-11
599616726757900160,-11
599616726765586560,-14
599616726773272960,-11
599616726780959488,-14
599616726788645888,-16
599616726796332288,-16
599616726804018688,-14
599616726811705088,-14
599616726819391616,-11
599616726827078016,-9
599616726834764416,-11
599616726842450816,-7
599616726850137216,11
599616726857823744,21
599616726865510144,9
599616726873196544,2
599616726880882944,0
599616726888569344,-16
599616726896255872,-30
599616726903942272,-21
599616726911628672,-16
599616726919315072,-18
599616726927001472,-18
599616726934688000,-14
599616726942374400,-16
599616726950060800,-14
599616726957747279,-16
599616726965433600,-53
599616726973119872,-131
599616726980806144,-119
599616726988492416,114
599616726996178688,418
599616727003865088,421
599616727011551360,35
599616727019237632,-308
599616727026923904,-269
599616727034610176,-121
599616727042296448,-74
599616727049982720,9
599616727057668992,67
599616727065355264,14
599616727073041664,-9
599616727080727936,21
599616727088414208,16
599616727096100480,4
599616727103786752,16
599616727111473024,21
599616727119159296,16
599616727126845568,18
599616727134531840,21
599616727142218112,23
599616727149904512,23
599616727157590784,28
599616727165277056,32
599616727172963328,35
599616727180649600,37
599616727188335872,46
599616727196022144,53
599616727203708416,56
599616727211394688,60
599616727219081088,70
599616727226767360,77
599616727234453632,81
599616727242139904,86
599616727249826176,86
599616727257512448,86
599616727265198720,81
599616727272884992,72
599616727280571264,53
599616727288257664,25
599616727295943936,-9
599616727303630208,-32
599616727311316480,-46
599616727319002752,-60
599616727326689024,-65
599616727334375296,-67
599616727342061568,-65
599616727349747840,-63
599616727357434112,-58
599616727365120512,-56
599616727372806784,-53
599616727380493056,-51
599616727388179328,-49
599616727395865600,-44
599616727403551872,-44
599616727411238144,-42
599616727418924416,-39
599616727426610688,-37
599616727434297088,-35
599616727441983360,-32
599616727449669632,-30
599616727457355904,-28
599616727465042176,-28
599616727472728448,-25
599616727480414720,-23
599616727488100992,-23
599616727495787264,-21
599616727503473664,-21
599616727511159936,-21
599616727518846140,-18
599616727526532480,-21
599616727534218880,-21
599616727541905152,-21
599616727549591552,-21
599616727557277952,-18
599616727564964224,-23
599616727572650624,-23
599616727580337024,-21
599616727588023296,-21
599616727595709696,-23
599616727603396096,-21
599616727611082368,-18
599616727618768768,-21
599616727626455040,-21
599616727634141440,-16
599616727641827840,-16
599616727649514112,-18
599616727657200512,-18
599616727664886912,-16
599616727672573184,-16
599616727680259584,-16
599616727687945984,-16
599616727695632256,-16
599616727703318656,-14
599616727711005056,-14
599616727718691328,-14
599616727726377728,-11
599616727734064128,-11
599616727741750400,-14
599616727749436800,-11
599616727757123200,-11
599616727764809472,-11
599616727772495872,-11
599616727780182272,-11
599616727787868544,-11
599616727795554944,-14
599616727803241216,-16
599616727810927616,-14
599616727818614016,-11
599616727826300288,-11
599616727833986688,-14
599616727841673088,-14
599616727849359360,-11
599616727857045760,-11
599616727864732160,-11
599616727872418432,-11
599616727880104832,-9
599616727887791232,-7
599616727895477504,-11
599616727903163904,-11
599616727910850304,7
599616727918536576,21
599616727926222976,11
599616727933909376,4
599616727941595648,7
599616727949282048,-2
599616727956968448,-23
599616727964654720,-25
599616727972341120,-14
599616727980027392,-11
599616727987713792,-16
599616727995400192,-11
599616728003086464,-9
599616728010772864,-11
599616728018459264,-11
599616728026145536,-32
599616728033831936,-107
599616728041518336,-152
599616728049204608,7
599616728056891008,346
599616728064577408,524
599616728072263680,271
599616728079950092,-175
599616728087636736,-306
599616728095323392,-149
599616728103010048,-63
599616728110696576,-18
599616728118383232,44
599616728126069888,21
599616728133756544,-18
599616728141443200,2
599616728149129856,11
599616728156816384,-2
599616728164503040,-2
599616728172189696,2
599616728179876352,2
599616728187563008,2
599616728195249664,4
599616728202936192,9
599616728210622848,11
599616728218309504,14
599616728225996160,18
599616728233682816,23
599616728241369472,25
599616728249056000,30
599616728256742656,35
599616728264429312,39
599616728272115968,46
599616728279802624,53
599616728287489280,58
599616728295175808,63
599616728302862464,65
599616728310549120,70
599616728318235776,70
599616728325922432,67
599616728333609088,63
599616728341295616,51
599616728348982272,35
599616728356668928,9
599616728364355584,-16
599616728372042240,-37
599616728379728896,-51
599616728387415424,-58
599616728395102080,-63
599616728402788736,-63
599616728410475392,-63
599616728418162048,-58
599616728425848576,-56
599616728433535232,-53
599616728441221888,-49
599616728448908544,-46
599616728456595200,-44
599616728464281856,-42
599616728471968384,-39
599616728479655040,-37
599616728487341696,-35
599616728495028352,-35
599616728502715008,-32
599616728510401664,-30
599616728518088192,-28
599616728525774848,-25
599616728533461504,-23
599616728541148160,-21
599616728548834816,-18
599616728556521472,-18
599616728564208000,-18
599616728571894656,-18
599616728579581312,-16
599616728587267968,-16
599616728594954624,-16
599616728602641280,-16
599616728610327808,-16
599616728618014464,-16
599616728625701120,-14
599616728633387776,-14
599616728641074384,-16
599616728648760704,-16
599616728656446976,-16
599616728664133248,-14
599616728671819520,-14
599616728679505792,-14
599616728687192192,-14
599616728694878464,-14
599616728702564736,-16
599616728710251008,-18
599616728717937280,-16
599616728725623552,-14
599616728733309824,-14
599616728740996096,-14
599616728748682368,-14
599616728756368768,-14
599616728764055040,-14
599616728771741312,-14
599616728779427584,-14
599616728787113856,-11
599616728794800128,-11
599616728802486400,-14
599616728810172672,-16
599616728817858944,-14
599616728825545216,-11
599616728833231616,-11
599616728840917888,-11
599616728848604160,-11
599616728856290432,-11
599616728863976704,-9
599616728871662976,-7
599616728879349248,-9
599616728887035520,-9
599616728894721792,-7
599616728902408192,-4
599616728910094464,-7
599616728917780736,-7
599616728925467008,-4
599616728933153280,-4
599616728940839552,-4
599616728948525824,-4
599616728956212096,-4
599616728963898368,-4
599616728971584768,-4
599616728979271040,-4
599616728986957312,-4
599616728994643584,-9
599616729002329856,-9
599616729010016128,7
599616729017702400,25
599616729025388672,21
599616729033074944,11
599616729040761216,9
599616729048447616,2
599616729056133888,-16
599616729063820160,-23
599616729071506432,-14
599616729079192704,-9
599616729086878976,-16
599616729094565248,-14
599616729102251520,-9
599616729109937792,-9
599616729117624192,-9
599616729125310464,-25
599616729132996736,-91
599616729140683008,-154
599616729148369280,-37
599616729156055552,290
599616729163741824,526
599616729171428096,348
599616729179114368,-112
599616729186800768,-327
599616729194487040,-187
599616729202173245,-79
599616729209859456,-44
599616729217545728,37
599616729225232000,42
599616729232918272,-14
599616729240604544,-4
599616729248290944,18
599616729255977216,2
599616729263663488,0
599616729271349760,9
599616729279036032,7
599616729286722304,7
599616729294408576,11
599616729302094848,9
599616729309781120,9
599616729317467520,16
599616729325153792,18
599616729332840064,21
599616729340526336,25
599616729348212608,32
599616729355898880,37
599616729363585152,42
599616729371271424,49
599616729378957696,58
599616729386643968,65
599616729394330368,70
599616729402016640,77
599616729409702912,81
599616729417389184,81
599616729425075456,81
599616729432761728,74
599616729440448000,65
599616729448134272,44
599616729455820544,18
599616729463506944,-9
599616729471193216,-32
599616729478879488,-51
599616729486565760,-60
599616729494252032,-65
599616729501938304,-67
599616729509624576,-63
599616729517310848,-60
599616729524997120,-58
599616729532683520,-56
599616729540369792,-53
599616729548056064,-49
599616729555742336,-46
599616729563428608,-44
599616729571114880,-39
599616729578801152,-39
599616729586487424,-39
599616729594173696,-35
599616729601859968,-32
599616729609546368,-30
599616729617232640,-28
599616729624918912,-25
599616729632605184,-23
599616729640291456,-23
599616729647977728,-23
599616729655664000,-21
599616729663350272,-21
599616729671036544,-21
599616729678722944,-21
599616729686409216,-21
599616729694095488,-21
599616729701781760,-18
599616729709468032,-18
599616729717154304,-18
599616729724840576,-21
599616729732526848,-21
599616729740213120,-18
599616729747899520,-18
599616729755585792,-18
599616729763272106,-18
599616729770958720,-16
599616729778645376,-18
599616729786332032,-18
599616729794018560,-18
599616729801705216,-18
599616729809391872,-21
599616729817078528,-21
599616729824765184,-18
599616729832451840,-18
599616729840138368,-21
599616729847825024,-23
599616729855511680,-21
599616729863198336,-18
599616729870884992,-18
599616729878571648,-18
599616729886258176,-16
599616729893944832,-16
599616729901631488,-16
599616729909318144,-16
599616729917004800,-14
599616729924691456,-14
599616729932377984,-14
599616729940064640,-14
599616729947751296,-14
599616729955437952,-11
599616729963124608,-11
599616729970811264,-11
599616729978497792,-11
599616729986184448,-11
599616729993871104,-11
599616730001557760,-9
599616730009244416,-11
599616730016931072,-11
599616730024617600,2
599616730032304256,18
599616730039990912,18
599616730047677568,9
599616730055364224,7
599616730063050880,-2
599616730070737408,-21
599616730078424064,-23
599616730086110720,-16
599616730093797376,-14
599616730101484032,-14
599616730109170688,-11
599616730116857216,-11
599616730124543872,-11
599616730132230528,-9
599616730139917184,-18
599616730147603840,-70
599616730155290368,-145
599616730162977024,-77
599616730170663680,210
599616730178350336,470
599616730186036992,346
599616730193723648,-93
599616730201410176,-334
599616730209096832,-217
599616730216783488,-102
599616730224470144,-60
599616730232156800,42
599616730239843456,67
599616730247529984,2
599616730255216640,2
599616730262903296,28
599616730270589952,14
599616730278276608,11
599616730285963264,23
599616730293649792,21
599616730301336448,18
599616730309023104,23
599616730316709760,21
599616730324396402,18
599616730332082816,25
599616730339769216,30
599616730347455488,32
599616730355141888,35
599616730362828288,39
599616730370514560,46
599616730378200960,51
599616730385887360,53
599616730393573632,60
599616730401260032,67
599616730408946432,74
599616730416632704,81
599616730424319104,84
599616730432005376,86
599616730439691776,84
599616730447378176,79
599616730455064448,65
599616730462750848,49
599616730470437248,23
599616730478123520,-7
599616730485809920,-32
599616730493496320,-46
599616730501182592,-58
599616730508868992,-65
599616730516555392,-63
599616730524241664,-63
599616730531928064,-60
599616730539614464,-58
599616730547300736,-53
599616730554987136,-51
599616730562673536,-49
599616730570359808,-44
599616730578046208,-42
599616730585732608,-42
599616730593418880,-39
599616730601105280,-35
599616730608791552,-35
599616730616477952,-32
599616730624164352,-28
599616730631850624,-28
599616730639537024,-25
599616730647223424,-23
599616730654909696,-21
599616730662596096,-21
599616730670282496,-18
599616730677968768,-18
599616730685655168,-18
599616730693341568,-16
599616730701027840,-14
599616730708714240,-16
599616730716400640,-18
599616730724086912,-16
599616730731773312,-16
599616730739459712,-16
599616730747145984,-16
599616730754832384,-14
599616730762518656,-14
599616730770205056,-14
599616730777891456,-16
599616730785577728,-14
599616730793264128,-11
599616730800950528,-14
599616730808636800,-14
599616730816323200,-14
599616730824009600,-18
599616730831695872,-18
599616730839382272,-16
599616730847068672,-16
599616730854754944,-14
599616730862441344,-14
599616730870127744,-14
599616730877814016,-14
599616730885500346,-11
599616730893186560,-11
599616730900872832,-11
599616730908559104,-14
599616730916245376,-14
599616730923931648,-14
599616730931618048,-14
599616730939304320,-11
599616730946990592,-14
599616730954676864,-14
599616730962363136,-14
599616730970049408,-11
599616730977735680,-9
599616730985421952,-9
599616730993108224,-9
599616731000794624,-9
599616731008480896,-9
599616731016167168,-9
599616731023853440,-4
599616731031539712,-2
599616731039225984,-7
599616731046912256,-9
599616731054598528,4
599616731062284800,23
599616731069971072,16
599616731077657472,9
599616731085343744,9
599616731093030016,-2
599616731100716288,-21
599616731108402560,-23
599616731116088832,-11
599616731123775104,-11
599616731131461376,-14
599616731139147648,-11
599616731146834048,-9
599616731154520320,-9
599616731162206592,-7
599616731169892864,-21
599616731177579136,-84
599616731185265408,-145
599616731192951680,-30
599616731200637952,287
599616731208324224,507
599616731216010624,318
599616731223696896,-124
599616731231383168,-311
599616731239069440,-175
599616731246755712,-74
599616731254441984,-30
599616731262128256,46
599616731269814528,42
599616731277500800,-9
599616731285187200,2
599616731292873472,18
599616731300559744,7
599616731308246016,7
599616731315932288,14
599616731323618560,11
599616731331304832,7
599616731338991104,11
599616731346677376,14
599616731354363648,16
599616731362050048,18
599616731369736320,23
599616731377422592,25
599616731385108864,30
599616731392795136,35
599616731400481408,39
599616731408167680,42
599616731415853952,49
599616731423540224,58
599616731431226624,63
599616731438912896,70
599616731446599211,77
599616731454285568,79
599616731461971968,79
599616731469658368,79
599616731477344896,74
599616731485031296,65
599616731492717696,44
599616731500404096,21
599616731508090496,-4
599616731515777024,-28
599616731523463424,-46
599616731531149824,-56
599616731538836224,-58
599616731546522624,-60
599616731554209152,-60
599616731561895552,-56
599616731569581952,-53
599616731577268352,-49
599616731584954752,-46
599616731592641280,-44
599616731600327680,-42
599616731608014080,-39
599616731615700480,-39
599616731623386880,-37
599616731631073408,-32
599616731638759808,-30
599616731646446208,-30
599616731654132608,-28
599616731661819008,-25
599616731669505408,-23
599616731677191936,-21
599616731684878336,-21
599616731692564736,-18
599616731700251136,-18
599616731707937536,-21
599616731715624064,-18
599616731723310464,-16
599616731730996864,-16
599616731738683264,-16
599616731746369664,-16
599616731754056192,-16
599616731761742592,-14
599616731769428992,-16
599616731777115392,-16
599616731784801792,-16
599616731792488320,-16
599616731800174720,-18
599616731807861120,-16
599616731815547520,-14
599616731823233920,-16
599616731830920448,-18
599616731838606848,-18
599616731846293248,-21
599616731853979648,-21
599616731861666048,-18
599616731869352576,-16
599616731877038976,-16
599616731884725376,-18
599616731892411776,-18
599616731900098176,-14
599616731907784704,-11
599616731915471104,-14
599616731923157504,-16
599616731930843904,-14
599616731938530304,-11
599616731946216832,-14
599616731953903232,-14
599616731961589632,-11
599616731969276032,-11
599616731976962432,-14
599616731984648960,-11
599616731992335360,-9
599616732000021760,-11
599616732007708246,-11
599616732015394816,-9
599616732023081344,-9
599616732030768000,-9
599616732038454528,-9
599616732046141056,-7
599616732053827584,-7
599616732061514240,-7
599616732069200768,-7
599616732076887296,-7
599616732084573952,-7
599616732092260480,-9
599616732099947008,-9
599616732107633536,-9
599616732115320192,-9
599616732123006720,-9
599616732130693248,-4
599616732138379904,-4
599616732146066432,-9
599616732153752960,-2
599616732161439488,18
599616732169126144,23
599616732176812672,9
599616732184499200,7
599616732192185856,11
599616732199872384,0
599616732207558912,-23
599616732215245440,-23
599616732222932096,-11
599616732230618624,-11
599616732238305152,-14
599616732245991808,-11
599616732253678336,-11
599616732261364864,-11
599616732269051392,-11
599616732276738048,-32
599616732284424576,-105
599616732292111104,-156
599616732299797760,-2
599616732307484288,341
599616732315170816,549
599616732322857344,325
599616732330544000,-133
599616732338230528,-308
599616732345917056,-166
599616732353603712,-70
599616732361290240,-28
599616732368976768,32
599616732376663296,14
599616732384349952,-23
599616732392036480,-7
599616732399723008,7
599616732407409664,-2
599616732415096192,0
599616732422782720,4
599616732430469248,2
599616732438155904,4
599616732445842432,9
599616732453528960,9
599616732461215616,11
599616732468902144,16
599616732476588672,21
599616732484275200,23
599616732491961856,28
599616732499648384,32
599616732507334912,35
599616732515021568,42
599616732522708096,49
599616732530394624,53
599616732538081152,58
599616732545767808,67
599616732553454336,74
599616732561140864,79
599616732568827451,79
599616732576513664,77
599616732584199936,72
599616732591886208,63
599616732599572480,46
599616732607258752,21
599616732614945152,-4
599616732622631424,-30
599616732630317696,-49
599616732638003968,-58
599616732645690240,-63
599616732653376512,-60
599616732661062784,-63
599616732668749056,-63
599616732676435328,-58
599616732684121728,-56
599616732691808000,-51
599616732699494272,-49
599616732707180544,-46
599616732714866816,-42
599616732722553088,-42
599616732730239360,-42
599616732737925632,-37
599616732745611904,-35
599616732753298176,-32
599616732760984576,-32
599616732768670848,-30
599616732776357120,-28
599616732784043392,-28
599616732791729664,-28
599616732799415936,-25
599616732807102208,-25
599616732814788480,-25
599616732822474752,-23
599616732830161152,-21
599616732837847424,-21
599616732845533696,-23
599616732853219968,-25
599616732860906240,-25
599616732868592512,-23
599616732876278784,-23
599616732883965056,-23
599616732891651328,-21
599616732899337728,-21
599616732907024000,-23
599616732914710272,-21
599616732922396544,-18
599616732930082816,-21
599616732937769088,-21
599616732945455360,-21
599616732953141632,-18
599616732960827904,-18
599616732968514176,-16
599616732976200576,-16
599616732983886848,-16
599616732991573120,-16
599616732999259392,-16
599616733006945664,-16
599616733014631936,-16
599616733022318208,-16
599616733030004480,-16
599616733037690752,-16
599616733045377152,-16
599616733053063424,-16
599616733060749696,-14
599616733068435968,-11
599616733076122240,-11
599616733083808512,-14
599616733091494784,-14
599616733099181056,-11
599616733106867328,-11
599616733114553728,-14
599616733122240000,-11
599616733129926312,-11
599616733137612544,-11
599616733145298816,-9
599616733152985088,-11
599616733160671360,-9
599616733168357632,-11
599616733176044032,-14
599616733183730304,-14
599616733191416576,-11
599616733199102848,-11
599616733206789120,-9
599616733214475392,-9
599616733222161664,-11
599616733229847936,-7
599616733237534208,11
599616733245220608,23
599616733252906880,11
599616733260593152,2
599616733268279424,4
599616733275965696,-7
599616733283651968,-25
599616733291338240,-25
599616733299024512,-14
599616733306710784,-16
599616733314397056,-18
599616733322083456,-14
599616733329769728,-14
599616733337456000,-14
599616733345142272,-14
599616733352828544,-32
599616733360514816,-98
599616733368201088,-156
599616733375887360,-46
599616733383573632,266
599616733391260032,486
599616733398946304,294
599616733406632576,-159
599616733414318848,-348
599616733422005120,-201
599616733429691392,-93
599616733437377664,-46
599616733445063936,49
599616733452750208,51
599616733460436608,-11
599616733468122880,0
599616733475809152,23
599616733483495424,9
599616733491181696,7
599616733498867968,16
599616733506554240,16
599616733514240512,16
599616733521926784,18
599616733529613056,21
599616733537299456,23
599616733544985728,28
599616733552672000,30
599616733560358272,32
599616733568044544,35
599616733575730816,42
599616733583417088,46
599616733591103360,51
599616733598789632,56
599616733606476032,65
599616733614162304,72
599616733621848576,77
599616733629534848,84
599616733637221120,84
599616733644907392,86
599616733652593664,84
599616733660279936,77
599616733667966208,65
599616733675652608,49
599616733683338880,21
599616733691025173,-9
599616733698711808,-30
599616733706398464,-46
599616733714085248,-58
599616733721771904,-63
599616733729458560,-65
599616733737145344,-65
599616733744832000,-67
599616733752518784,-63
599616733760205440,-58
599616733767892096,-56
599616733775578880,-53
599616733783265536,-49
599616733790952192,-46
599616733798638976,-44
599616733806325632,-42
599616733814012416,-39
599616733821699072,-37
599616733829385728,-35
599616733837072512,-32
599616733844759168,-32
599616733852445824,-32
599616733860132608,-32
599616733867819264,-35
599616733875506048,-32
599616733883192704,-30
599616733890879360,-30
599616733898566144,-28
599616733906252800,-28
599616733913939456,-28
599616733921626240,-25
599616733929312896,-25
599616733936999680,-25
599616733944686336,-25
599616733952372992,-23
599616733960059776,-25
599616733967746432,-23
599616733975433088,-21
599616733983119872,-23
599616733990806528,-23
599616733998493312,-21
599616734006179968,-18
599616734013866624,-21
599616734021553408,-21
599616734029240064,-18
599616734036926720,-18
599616734044613504,-18
599616734052300160,-18
599616734059986944,-18
599616734067673600,-16
599616734075360256,-16
599616734083047040,-14
599616734090733696,-14
599616734098420352,-14
599616734106107136,-16
599616734113793792,-16
599616734121480576,-14
599616734129167232,-11
599616734136853888,-14
599616734144540672,-14
599616734152227328,-11
599616734159913984,-11
599616734167600768,-9
599616734175287424,-9
599616734182974208,-9
599616734190660864,-9
599616734198347520,-9
599616734206034304,-7
599616734213720960,-9
599616734221407616,-9
599616734229094400,-7
599616734236781056,-7
599616734244467840,-9
599616734252154556,2
599616734259840768,23
599616734267527040,21
599616734275213312,9
599616734282899584,4
599616734290585856,-7
599616734298272256,-23
599616734305958528,-25
599616734313644800,-16
599616734321331072,-14
599616734329017344,-16
599616734336703616,-14
599616734344389888,-14
599616734352076160,-11
599616734359762432,-11
599616734367448832,-28
599616734375135104,-88
599616734382821376,-152
599616734390507648,-53
599616734398193920,245
599616734405880192,474
599616734413566464,308
599616734421252736,-126
599616734428939008,-322
599616734436625280,-196
599616734444311680,-93
599616734451997952,-46
599616734459684224,42
599616734467370496,49
599616734475056768,-9
599616734482743040,0
599616734490429312,23
599616734498115584,9
599616734505801856,7
599616734513488256,16
599616734521174528,14
599616734528860800,11
599616734536547072,16
599616734544233344,21
599616734551919616,21
599616734559605888,23
599616734567292160,28
599616734574978432,32
599616734582664832,37
599616734590351104,42
599616734598037376,44
599616734605723648,49
599616734613409920,53
599616734621096192,60
599616734628782464,70
599616734636468736,77
599616734644155008,81
599616734651841280,84
599616734659527680,86
599616734667213952,84
599616734674900224,79
599616734682586496,70
599616734690272768,53
599616734697959040,28
599616734705645312,-2
599616734713331584,-25
599616734721017856,-42
599616734728704256,-51
599616734736390528,-58
599616734744076800,-60
599616734751763072,-58
599616734759449344,-56
599616734767135616,-51
599616734774821888,-49
599616734782508160,-46
599616734790194432,-46
599616734797880832,-44
599616734805567104,-39
599616734813253417,-39
599616734820939648,-37
599616734828625920,-35
599616734836312192,-32
599616734843998464,-30
599616734851684736,-28
599616734859371136,-25
599616734867057408,-25
599616734874743680,-28
599616734882429952,-32
599616734890116224,-30
599616734897802496,-25
599616734905488768,-25
599616734913175040,-25
599616734920861312,-25
599616734928547712,-25
599616734936233984,-23
599616734943920256,-21
599616734951606528,-21
599616734959292800,-18
599616734966979072,-18
599616734974665344,-23
599616734982351616,-21
599616734990037888,-18
599616734997724160,-18
599616735005410560,-18
599616735013096832,-18
599616735020783104,-16
599616735028469376,-16
599616735036155648,-16
599616735043841920,-16
599616735051528192,-16
599616735059214464,-16
599616735066900736,-16
599616735074587136,-16
599616735082273408,-14
599616735089959680,-14
599616735097645952,-14
599616735105332224,-14
599616735113018496,-14
599616735120704768,-14
599616735128391040,-11
599616735136077312,-9
599616735143763712,-9
599616735151449984,-9
599616735159136256,-9
599616735166822528,-9
599616735174508800,-9
599616735182195072,-7
599616735189881344,-7
599616735197567616,-7
599616735205253888,-7
599616735212940160,-7
599616735220626560,-4
599616735228312832,-4
599616735235999104,-4
599616735243685376,-4
599616735251371648,-4
599616735259057920,-4
599616735266744192,-2
599616735274430464,-4
599616735282116736,-4
599616735289803136,-4
599616735297489408,-4
599616735305175680,-4
599616735312861952,-4
599616735320548224,-2
599616735328234496,0
599616735335920768,-2
599616735343607040,-4
599616735351293312,11
599616735358979712,30
599616735366665984,23
599616735374352278,9
599616735382038912,9
599616735389725568,0
599616735397412352,-21
599616735405099008,-23
599616735412785664,-11
599616735420472448,-9
599616735428159104,-14
599616735435845888,-11
599616735443532544,-9
599616735451219200,-11
599616735458905984,-14
599616735466592640,-28
599616735474279296,-93
599616735481966080,-161
599616735489652736,-46
599616735497339520,280
599616735505026176,535
599616735512712832,383
599616735520399616,-74
599616735528086272,-311
599616735535772928,-184
599616735543459712,-70
599616735551146368,-35
599616735558833152,35
599616735566519808,30
599616735574206464,-18
599616735581893248,-4
599616735589579904,14
599616735597266560,0
599616735604953344,0
599616735612640000,9
599616735620326784,7
599616735628013440,4
599616735635700096,11
599616735643386880,14
599616735651073536,16
599616735658760192,18
599616735666446976,21
599616735674133632,23
599616735681820416,28
599616735689507072,32
599616735697193728,35
599616735704880512,42
599616735712567168,46
599616735720253824,51
599616735727940608,58
599616735735627264,67
599616735743314048,72
599616735751000704,77
599616735758687360,77
599616735766374144,77
599616735774060800,72
599616735781747456,65
599616735789434240,51
599616735797120896,32
599616735804807680,4
599616735812494336,-21
599616735820180992,-37
599616735827867776,-46
599616735835554432,-53
599616735843241088,-58
599616735850927872,-58
599616735858614528,-56
599616735866301312,-51
599616735873987968,-49
599616735881674624,-51
599616735889361408,-49
599616735897048064,-44
599616735904734720,-42
599616735912421504,-39
599616735920108160,-35
599616735927794944,-35
599616735935481657,-35
599616735943167872,-30
599616735950854144,-28
599616735958540416,-25
599616735966226688,-23
599616735973912960,-23
599616735981599360,-21
599616735989285632,-23
599616735996971904,-25
599616736004658176,-23
599616736012344448,-21
599616736020030720,-21
599616736027716992,-23
599616736035403264,-21
599616736043089536,-18
599616736050775936,-21
599616736058462208,-21
599616736066148480,-21
599616736073834752,-18
599616736081521024,-18
599616736089207296,-18
599616736096893568,-18
599616736104579840,-18
599616736112266112,-18
599616736119952384,-16
599616736127638784,-16
599616736135325056,-16
599616736143011328,-16
599616736150697600,-16
599616736158383872,-14
599616736166070144,-16
599616736173756416,-16
599616736181442688,-16
599616736189128960,-14
599616736196815360,-16
599616736204501632,-14
599616736212187904,-14
599616736219874176,-14
599616736227560448,-11
599616736235246720,-11
599616736242932992,-11
599616736250619264,-11
599616736258305536,-11
599616736265991936,-11
599616736273678208,-11
599616736281364480,-11
599616736289050752,-11
599616736296737024,-11
599616736304423296,-9
599616736312109568,-9
599616736319795840,-11
599616736327482112,-9
599616736335168384,-9
599616736342854784,-9
599616736350541056,-9
599616736358227328,-9
599616736365913600,-9
599616736373599872,-11
599616736381286144,-11
599616736388972416,-11
599616736396658688,-11
599616736404344960,-9
599616736412031360,-11
599616736419717632,-14
599616736427403904,-2
599616736435090176,18
599616736442776448,23
599616736450462720,7
599616736458148992,4
599616736465835264,2
599616736473521536,-16
599616736481207936,-28
599616736488894208,-18
599616736496580518,-14
599616736504266752,-16
599616736511953024,-16
599616736519639296,-11
599616736527325568,-11
599616736535011840,-11
599616736542698240,-18
599616736550384512,-65
599616736558070784,-147
599616736565757056,-100
599616736573443328,187
599616736581129600,486
599616736588815872,423
599616736596502144,-9
599616736604188416,-325
599616736611874816,-243
599616736619561088,-98
599616736627247360,-60
599616736634933632,21
599616736642619904,56
599616736650306176,-2
599616736657992448,-11
599616736665678720,18
599616736673364992,9
599616736681051264,0
599616736688737664,9
599616736696423936,14
599616736704110208,11
599616736711796480,14
599616736719482752,16
599616736727169024,18
599616736734855296,23
599616736742541568,25
599616736750227840,25
599616736757914240,32
599616736765600512,39
599616736773286784,42
599616736780973056,46
599616736788659328,53
599616736796345600,60
599616736804031872,65
599616736811718144,72
599616736819404416,79
599616736827090816,81
599616736834777088,84
599616736842463360,81
599616736850149632,79
599616736857835904,70
599616736865522176,56
599616736873208448,32
599616736880894720,4
599616736888580992,-28
599616736896267264,-46
599616736903953664,-56
599616736911639936,-65
599616736919326208,-67
599616736927012480,-67
599616736934698752,-65
599616736942385024,-63
599616736950071296,-58
599616736957757568,-56
599616736965443840,-51
599616736973130240,-49
599616736980816512,-46
599616736988502784,-44
599616736996189056,-44
599616737003875328,-42
599616737011561600,-37
599616737019247872,-32
599616737026934144,-32
599616737034620416,-30
599616737042306816,-28
599616737049993088,-28
599616737057679379,-25
599616737065365632,-25
599616737073051904,-23
599616737080738176,-21
599616737088424448,-21
599616737096110720,-23
599616737103797120,-25
599616737111483392,-25
599616737119169664,-23
599616737126855936,-21
599616737134542208,-23
599616737142228480,-23
599616737149914752,-18
599616737157601024,-18
599616737165287296,-18
599616737172973696,-18
599616737180659968,-18
599616737188346240,-18
599616737196032512,-18
599616737203718784,-16
599616737211405056,-14
599616737219091328,-14
599616737226777600,-14
599616737234463872,-14
599616737242150144,-11
599616737249836544,-14
599616737257522816,-14
599616737265209088,-11
599616737272895360,-9
599616737280581632,-11
599616737288267904,-11
599616737295954176,-9
599616737303640448,-9
599616737311326720,-9
599616737319013120,-9
599616737326699392,-9
599616737334385664,-9
599616737342071936,-7
599616737349758208,-7
599616737357444480,-7
599616737365130752,-7
599616737372817024,-9
599616737380503296,-7
599616737388189696,-9
599616737395875968,-9
599616737403562240,-7
599616737411248512,-9
599616737418934784,-9
599616737426621056,7
599616737434307328,21
599616737441993600,16
599616737449679872,7
599616737457366144,4
599616737465052544,-11
599616737472738816,-25
599616737480425088,-18
599616737488111360,-11
599616737495797632,-14
599616737503483904,-14
599616737511170176,-11
599616737518856448,-11
599616737526542720,-9
599616737534229120,-9
599616737541915392,-37
599616737549601664,-112
599616737557287936,-133
599616737564974208,70
599616737572660480,390
599616737580346752,465
599616737588033024,121
599616737595719296,-269
599616737603405696,-287
599616737611091968,-131
599616737618778240,-74
599616737626464640,0
599616737634151040,70
599616737641837312,28
599616737649523712,-7
599616737657210112,21
599616737664896384,23
599616737672582784,7
599616737680269184,11
599616737687955456,18
599616737695641856,14
599616737703328256,16
599616737711014528,21
599616737718700928,21
599616737726387200,23
599616737734073600,28
599616737741760000,32
599616737749446272,35
599616737757132672,39
599616737764819072,44
599616737772505344,49
599616737780191744,53
599616737787878144,60
599616737795564416,65
599616737803250816,72
599616737810937216,79
599616737818623488,84
599616737826309888,86
599616737833996288,86
599616737841682560,84
599616737849368960,77
599616737857055360,63
599616737864741632,42
599616737872428032,16
599616737880114432,-14
599616737887800704,-39
599616737895487104,-53
599616737903173376,-60
599616737910859776,-65
599616737918546176,-67
599616737926232448,-65
599616737933918848,-63
599616737941605248,-58
599616737949291520,-56
599616737956977920,-49
599616737964664320,-49
599616737972350592,-46
599616737980036992,-42
599616737987723392,-42
599616737995409664,-39
599616738003096064,-35
599616738010782464,-32
599616738018468736,-32
599616738026155136,-30
599616738033841536,-28
599616738041527808,-25
599616738049214208,-23
599616738056900608,-21
599616738064586880,-21
599616738072273280,-18
599616738079959552,-18
599616738087645952,-18
599616738095332352,-18
599616738103018624,-16
599616738110705024,-16
599616738118391424,-16
599616738126077696,-14
599616738133764096,-14
599616738141450496,-14
599616738149136768,-14
599616738156823168,-14
599616738164509568,-14
599616738172195840,-11
599616738179882192,-11
599616738187568896,-11
599616738195255552,-11
599616738202942208,-11
599616738210628736,-11
599616738218315392,-11
599616738226002048,-9
599616738233688704,-9
599616738241375360,-11
599616738249062016,-11
599616738256748544,-11
599616738264435200,-11
599616738272121856,-14
599616738279808512,-14
599616738287495168,-14
599616738295181824,-11
599616738302868352,-14
599616738310555008,-11
599616738318241664,-11
599616738325928320,-11
599616738333614976,-14
599616738341301632,-14
599616738348988160,-11
599616738356674816,-9
599616738364361472,-11
599616738372048128,-11
599616738379734784,-9
599616738387421440,-9
599616738395107968,-11
599616738402794624,-14
599616738410481280,-14
599616738418167936,-11
599616738425854592,-11
599616738433541248,-11
599616738441227776,-9
599616738448914432,-7
599616738456601088,-11
599616738464287744,-11
599616738471974400,9
599616738479661056,23
599616738487347584,14
599616738495034240,2
599616738502720896,7
599616738510407552,-4
599616738518094208,-28
599616738525780736,-25
599616738533467392,-14
599616738541154048,-14
599616738548840704,-18
599616738556527360,-14
599616738564214016,-11
599616738571900544,-14
599616738579587200,-16
599616738587273856,-46
599616738594960512,-128
599616738602647168,-147
599616738610333824,63
599616738618020352,407
599616738625707008,526
599616738633393664,208
599616738641080320,-229
599616738648766976,-297
599616738656453632,-128
599616738664140160,-63
599616738671826816,-11
599616738679513472,44
599616738687200128,7
599616738694886784,-21
599616738702573440,4
599616738710259968,7
599616738717946624,-4
599616738725633280,2
599616738733319936,7
599616738741006484,4
599616738748692736,4
599616738756379008,9
599616738764065280,11
599616738771751552,14
599616738779437824,16
599616738787124224,18
599616738794810496,23
599616738802496768,25
599616738810183040,30
599616738817869312,35
599616738825555584,39
599616738833241856,46
599616738840928128,51
599616738848614400,56
599616738856300800,65
599616738863987072,70
599616738871673344,74
599616738879359616,74
599616738887045888,72
599616738894732160,67
599616738902418432,56
599616738910104704,37
599616738917790976,9
599616738925477248,-16
599616738933163648,-37
599616738940849920,-53
599616738948536192,-63
599616738956222464,-65
599616738963908736,-67
599616738971595008,-65
599616738979281280,-63
599616738986967552,-58
599616738994653824,-58
599616739002340224,-53
599616739010026496,-49
599616739017712768,-49
599616739025399040,-46
599616739033085312,-44
599616739040771584,-42
599616739048457856,-39
599616739056144128,-37
599616739063830400,-35
599616739071516800,-32
599616739079203072,-30
599616739086889344,-28
599616739094575616,-28
599616739102261888,-25
599616739109948160,-25
599616739117634432,-23
599616739125320704,-23
599616739133006976,-21
599616739140693248,-21
599616739148379648,-18
599616739156065920,-18
599616739163752192,-18
599616739171438464,-21
599616739179124736,-18
599616739186811008,-16
599616739194497280,-16
599616739202183552,-16
599616739209869824,-18
599616739217556224,-18
599616739225242496,-18
599616739232928768,-16
599616739240615040,-16
599616739248301312,-16
599616739255987584,-16
599616739263673856,-16
599616739271360128,-14
599616739279046400,-14
599616739286732800,-14
599616739294419072,-14
599616739302105345,-16
599616739309791616,-16
599616739317477888,-14
599616739325164160,-14
599616739332850432,-14
599616739340536704,-11
599616739348223104,-14
599616739355909376,-18
599616739363595648,-18
599616739371281920,-14
599616739378968192,-14
599616739386654464,-16
599616739394340736,-16
599616739402027008,-14
599616739409713280,-14
599616739417399680,-16
599616739425085952,-16
599616739432772224,-16
599616739440458496,-16
599616739448144768,-16
599616739455831040,-14
599616739463517312,-11
599616739471203584,-14
599616739478889856,-14
599616739486576128,-11
599616739494262528,-14
599616739501948800,-11
599616739509635072,-11
599616739517321344,-11
599616739525007616,-9
599616739532693888,-7
599616739540380160,-9
599616739548066432,-11
599616739555752704,0
599616739563439104,23
599616739571125376,21
599616739578811648,4
599616739586497920,2
599616739594184192,0
599616739601870464,-21
599616739609556736,-25
599616739617243008,-14
599616739624929280,-11
599616739632615680,-16
599616739640301952,-14
599616739647988224,-9
599616739655674496,-11
599616739663360768,-11
599616739671047040,-25
599616739678733312,-91
599616739686419584,-159
599616739694105856,-51
599616739701792128,273
599616739709478528,526
599616739717164800,369
599616739724851072,-88
599616739732537344,-329
599616739740223616,-203
599616739747909888,-84
599616739755596160,-44
599616739763282432,37
599616739770968704,44
599616739778655104,-14
599616739786341376,-4
599616739794027648,18
599616739801713920,4
599616739809400192,0
599616739817086464,11
599616739824772736,9
599616739832459008,7
599616739840145280,14
599616739847831680,16
599616739855517952,16
599616739863204206,18
599616739870890880,21
599616739878577536,25
599616739886264192,32
599616739893950720,35
599616739901637376,39
599616739909324032,44
599616739917010688,49
599616739924697344,46
599616739932384000,51
599616739940070528,63
599616739947757184,70
599616739955443840,72
599616739963130496,72
599616739970817152,74
599616739978503808,70
599616739986190336,58
599616739993876992,44
599616740001563648,23
599616740009250304,-4
599616740016936960,-30
599616740024623616,-46
599616740032310144,-56
599616740039996800,-63
599616740047683456,-67
599616740055370112,-65
599616740063056768,-63
599616740070743424,-63
599616740078429952,-58
599616740086116608,-56
599616740093803264,-51
599616740101489920,-49
599616740109176576,-46
599616740116863232,-44
599616740124549760,-42
599616740132236416,-39
599616740139923072,-37
599616740147609728,-35
599616740155296384,-32
599616740162983040,-30
599616740170669568,-28
599616740178356224,-25
599616740186042880,-23
599616740193729536,-23
599616740201416192,-21
599616740209102848,-18
599616740216789376,-21
599616740224476032,-21
599616740232162688,-18
599616740239849344,-18
599616740247536000,-18
599616740255222528,-18
599616740262909184,-18
599616740270595840,-16
599616740278282496,-18
599616740285969152,-21
599616740293655808,-21
599616740301342336,-18
599616740309028992,-18
599616740316715648,-21
599616740324402304,-21
599616740332088960,-18
599616740339775616,-18
599616740347462144,-18
599616740355148800,-18
599616740362835456,-18
599616740370522112,-18
599616740378208768,-16
599616740385895424,-16
599616740393581952,-14
599616740401268608,-16
599616740408955264,-18
599616740416641920,-18
599616740424328502,-21
599616740432014848,-18
599616740439701248,-18
599616740447387520,-16
599616740455073920,-16
599616740462760320,-21
599616740470446592,-23
599616740478132992,-18
599616740485819392,-14
599616740493505664,-16
599616740501192064,-16
599616740508878464,-16
599616740516564736,-14
599616740524251136,-11
599616740531937408,-11
599616740539623808,-14
599616740547310208,-9
599616740554996480,9
599616740562682880,18
599616740570369280,9
599616740578055552,2
599616740585741952,-2
599616740593428352,-21
599616740601114624,-28
599616740608801024,-18
599616740616487424,-16
599616740624173696,-18
599616740631860096,-14
599616740639546496,-14
599616740647232768,-14
599616740654919168,-11
599616740662605568,-18
599616740670291840,-70
599616740677978240,-142
599616740685664640,-81
599616740693350912,203
599616740701037312,472
599616740708723584,362
599616740716409984,-74
599616740724096384,-329
599616740731782656,-219
599616740739469056,-102
599616740747155456,-58
599616740754841728,42
599616740762528128,70
599616740770214528,4
599616740777900800,2
599616740785587200,28
599616740793273600,16
599616740800959872,11
599616740808646272,21
599616740816332672,21
599616740824018944,18
599616740831705344,23
599616740839391744,25
599616740847078016,25
599616740854764416,28
599616740862450688,32
599616740870137088,37
599616740877823488,37
599616740885509760,39
599616740893196160,46
599616740900882560,53
599616740908568832,58
599616740916255232,63
599616740923941632,70
599616740931627904,72
599616740939314304,77
599616740947000704,81
599616740954686976,84
599616740962373376,81
599616740970059776,77
599616740977746048,67
599616740985432446,53
599616740993118720,28
599616741000804992,-4
599616741008491264,-30
599616741016177536,-49
599616741023863808,-60
599616741031550208,-67
599616741039236480,-72
599616741046922752,-70
599616741054609024,-67
599616741062295296,-65
599616741069981568,-63
599616741077667840,-58
599616741085354112,-53
599616741093040384,-51
599616741100726784,-51
599616741108413056,-49
599616741116099328,-46
599616741123785600,-44
599616741131471872,-39
599616741139158144,-35
599616741146844416,-35
599616741154530688,-35
599616741162216960,-32
599616741169903232,-28
599616741177589632,-28
599616741185275904,-28
599616741192962176,-25
599616741200648448,-21
599616741208334720,-23
599616741216020992,-23
599616741223707264,-21
599616741231393536,-18
599616741239079808,-18
599616741246766208,-21
599616741254452480,-21
599616741262138752,-18
599616741269825024,-18
599616741277511296,-18
599616741285197568,-18
599616741292883840,-16
599616741300570112,-18
599616741308256384,-21
599616741315942784,-16
599616741323629056,-14
599616741331315328,-16
599616741339001600,-16
599616741346687872,-14
599616741354374144,-14
599616741362060416,-14
599616741369746688,-16
599616741377432960,-14
599616741385119360,-14
599616741392805632,-14
599616741400491904,-14
599616741408178176,-14
599616741415864448,-14
599616741423550720,-14
599616741431236992,-16
599616741438923264,-18
599616741446609536,-18
599616741454295808,-18
599616741461982208,-18
599616741469668480,-18
599616741477354752,-18
599616741485041024,-18
599616741492727296,-16
599616741500413568,-14
599616741508099840,-14
599616741515786112,-14
599616741523472384,-14
599616741531158784,-14
599616741538845056,-11
599616741546531311,-11
599616741554217728,-11
599616741561904128,-9
599616741569590528,-9
599616741577277056,-11
599616741584963456,-7
599616741592649856,14
599616741600336256,21
599616741608022656,7
599616741615709184,2
599616741623395584,2
599616741631081984,-21
599616741638768384,-35
599616741646454784,-23
599616741654141312,-16
599616741661827712,-23
599616741669514112,-23
599616741677200512,-16
599616741684886912,-16
599616741692573440,-18
599616741700259840,-30
599616741707946240,-88
599616741715632640,-156
599616741723319040,-63
599616741731005568,248
599616741738691968,510
599616741746378368,383
599616741754064768,-67
599616741761751168,-325
599616741769437568,-205
599616741777124096,-79
599616741784810496,-44
599616741792496896,28
599616741800183296,37
599616741807869696,-16
599616741815556224,-9
599616741823242624,14
599616741830929024,0
599616741838615424,-2
599616741846301824,4
599616741853988352,4
599616741861674752,2
599616741869361152,7
599616741877047552,9
599616741884733952,9
599616741892420480,11
599616741900106880,16
599616741907793280,18
599616741915479680,25
599616741923166080,30
599616741930852608,32
599616741938539008,32
599616741946225408,37
599616741953911808,44
599616741961598208,51
599616741969284736,58
599616741976971136,65
599616741984657536,70
599616741992343936,72
599616742000030336,72
599616742007716864,70
599616742015403264,60
599616742023089664,44
599616742030776064,23
599616742038462464,-4
599616742046148992,-28
599616742053835392,-49
599616742061521792,-58
599616742069208192,-65
599616742076894592,-70
599616742084581120,-70
599616742092267520,-67
599616742099953920,-63
599616742107640346,-58
599616742115326848,-56
599616742123013376,-53
599616742130700032,-49
599616742138386560,-46
599616742146073088,-46
599616742153759616,-42
599616742161446272,-39
599616742169132800,-42
599616742176819328,-44
599616742184505984,-39
599616742192192512,-35
599616742199879040,-35
599616742207565568,-35
599616742215252224,-32
599616742222938752,-30
599616742230625280,-28
599616742238311936,-30
599616742245998464,-25
599616742253684992,-23
599616742261371520,-23
599616742269058176,-25
599616742276744704,-23
599616742284431232,-23
599616742292117888,-23
599616742299804416,-23
599616742307490944,-23
599616742315177472,-23
599616742322864128,-21
599616742330550656,-21
599616742338237184,-21
599616742345923840,-21
599616742353610368,-21
599616742361296896,-21
599616742368983424,-21
599616742376670080,-18
599616742384356608,-21
599616742392043136,-21
599616742399729792,-18
599616742407416320,-18
599616742415102848,-18
599616742422789376,-18
599616742430476032,-16
599616742438162560,-16
599616742445849088,-18
599616742453535744,-23
599616742461222272,-21
599616742468908800,-18
599616742476595328,-18
599616742484281984,-18
599616742491968512,-18
599616742499655040,-16
599616742507341696,-18
599616742515028224,-16
599616742522714752,-14
599616742530401280,-14
599616742538087936,-16
599616742545774464,-14
599616742553460992,-14
599616742561147648,-14
599616742568834176,-14
599616742576520704,-14
599616742584207232,-14
599616742591893888,-11
599616742599580416,-11
599616742607266944,-11
599616742614953600,-11
599616742622640128,-11
599616742630326656,-11
599616742638013184,-11
599616742645699840,-11
599616742653386368,-9
599616742661072896,-9
599616742668759551,-14
599616742676445824,-14
599616742684132096,7
599616742691818368,21
599616742699504640,14
599616742707190912,4
599616742714877312,7
599616742722563584,-7
599616742730249856,-25
599616742737936128,-28
599616742745622400,-21
599616742753308672,-21
599616742760994944,-21
599616742768681216,-18
599616742776367488,-18
599616742784053888,-18
599616742791740160,-18
599616742799426432,-42
599616742807112704,-121
599616742814798976,-163
599616742822485248,11
599616742830171520,362
599616742837857792,542
599616742845544064,283
599616742853230336,-175
599616742860916736,-318
599616742868603008,-166
599616742876289280,-79
599616742883975552,-30
599616742891661824,37
599616742899348096,11
599616742907034368,-28
599616742914720640,-4
599616742922406912,7
599616742930093312,-9
599616742937779584,-4
599616742945465856,2
599616742953152128,-2
599616742960838400,-2
599616742968524672,2
599616742976210944,4
599616742983897216,7
599616742991583488,9
599616742999269888,14
599616743006956160,18
599616743014642432,21
599616743022328704,25
599616743030014976,30
599616743037701248,37
599616743045387520,42
599616743053073792,49
599616743060760064,58
599616743068446336,63
599616743076132736,67
599616743083819008,74
599616743091505280,74
599616743099191552,72
599616743106877824,65
599616743114564096,58
599616743122250368,42
599616743129936640,16
599616743137622912,-11
599616743145309312,-35
599616743152995584,-53
599616743160681856,-63
599616743168368128,-67
599616743176054400,-70
599616743183740672,-70
599616743191426944,-67
599616743199113216,-63
599616743206799488,-60
599616743214485888,-58
599616743222172160,-53
599616743229858412,-53
599616743237544704,-49
599616743245230976,-46
599616743252917248,-46
599616743260603520,-44
599616743268289792,-39
599616743275976192,-39
599616743283662464,-42
599616743291348736,-39
599616743299035008,-35
599616743306721280,-35
599616743314407552,-32
599616743322093824,-30
599616743329780096,-30
599616743337466368,-30
599616743345152768,-30
599616743352839040,-28
599616743360525312,-25
599616743368211584,-25
599616743375897856,-25
599616743383584128,-25
599616743391270400,-25
599616743398956672,-23
599616743406642944,-25
599616743414329216,-28
599616743422015616,-25
599616743429701888,-25
599616743437388160,-25
599616743445074432,-23
599616743452760704,-25
599616743460446976,-30
599616743468133248,-28
599616743475819520,-25
599616743483505792,-25
599616743491192192,-25
599616743498878464,-25
599616743506564736,-25
599616743514251008,-23
599616743521937280,-23
599616743529623552,-23
599616743537309824,-23
599616743544996096,-21
599616743552682368,-23
599616743560368768,-21
599616743568055040,-21
599616743575741312,-21
599616743583427584,-21
599616743591113856,-18
599616743598800128,-18
599616743606486400,-18
599616743614172672,-18
599616743621858944,-18
599616743629545216,-21
599616743637231616,-21
599616743644917888,-21
599616743652604160,-18
599616743660290432,-16
599616743667976704,-16
599616743675662976,-16
599616743683349248,-16
599616743691035520,-16
599616743698721792,-14
599616743706408192,-11
599616743714094464,-16
599616743721780736,-16
599616743729467008,2
599616743737153280,16
599616743744839552,9
599616743752525824,2
599616743760212096,0
599616743767898368,-11
599616743775584768,-30
599616743783271040,-30
599616743790957273,-21
599616743798643584,-18
599616743806329856,-21
599616743814016128,-18
599616743821702400,-18
599616743829388672,-18
599616743837075072,-18
599616743844761344,-37
599616743852447616,-107
599616743860133888,-163
599616743867820160,-23
599616743875506432,301
599616743883192704,479
599616743890878976,229
599616743898565248,-215
599616743906251648,-339
599616743913937920,-182
599616743921624192,-102
599616743929310464,-44
599616743936996736,49
599616743944683008,35
599616743952369280,-23
599616743960055552,-4
599616743967741824,9
599616743975428096,-7
599616743983114496,-4
599616743990800768,7
599616743998487040,2
599616744006173312,0
599616744013859584,7
599616744021545856,9
599616744029232128,9
599616744036918400,14
599616744044604672,18
599616744052291072,21
599616744059977344,23
599616744067663616,28
599616744075349888,32
599616744083036160,39
599616744090722432,44
599616744098408704,49
599616744106094976,56
599616744113781248,63
599616744121467648,67
599616744129153920,72
599616744136840192,74
599616744144526464,72
599616744152212736,65
599616744159899008,56
599616744167585280,39
599616744175271552,14
599616744182957824,-16
599616744190644096,-39
599616744198330496,-56
599616744206016768,-65
599616744213703040,-72
599616744221389312,-74
599616744229075584,-72
599616744236761856,-70
599616744244448128,-70
599616744252134400,-65
599616744259820672,-60
599616744267507072,-58
599616744275193344,-56
599616744282879616,-56
599616744290565888,-53
599616744298252160,-51
599616744305938432,-49
599616744313624704,-44
599616744321310976,-39
599616744328997248,-42
599616744336683648,-42
599616744344369920,-37
599616744352056134,-35
599616744359742848,-35
599616744367429504,-35
599616744375116288,-32
599616744382802944,-30
599616744390489600,-32
599616744398176384,-35
599616744405863040,-35
599616744413549824,-32
599616744421236480,-32
599616744428923136,-35
599616744436609920,-32
599616744444296576,-30
599616744451983232,-30
599616744459670016,-35
599616744467356672,-37
599616744475043456,-35
599616744482730112,-32
599616744490416768,-32
599616744498103552,-32
599616744505790208,-30
599616744513476864,-30
599616744521163648,-30
599616744528850304,-28
599616744536537088,-28
599616744544223744,-28
599616744551910400,-28
599616744559597184,-25
599616744567283840,-25
599616744574970496,-25
599616744582657280,-23
599616744590343936,-23
599616744598030720,-23
599616744605717376,-23
599616744613404032,-23
599616744621090816,-23
599616744628777472,-23
599616744636464128,-23
599616744644150912,-23
599616744651837568,-21
599616744659524352,-21
599616744667211008,-23
599616744674897664,-18
599616744682584448,-16
599616744690271104,-18
599616744697957760,-21
599616744705644544,-18
599616744713331200,-18
599616744721017984,-18
599616744728704640,-18
599616744736391296,-16
599616744744078080,-14
599616744751764736,-18
599616744759451392,-18
599616744767138176,-2
599616744774824832,14
599616744782511616,7
599616744790198272,-2
599616744797884928,0
599616744805571712,-14
599616744813258368,-35
599616744820945024,-32
599616744828631808,-21
599616744836318464,-23
599616744844005248,-28
599616744851691904,-23
599616744859378560,-21
599616744867065344,-21
599616744874752000,-21
599616744882438656,-46
599616744890125440,-119
599616744897812096,-154
599616744905498880,28
599616744913185517,362
599616744920871808,493
599616744928558080,198
599616744936244352,-231
599616744943930624,-315
599616744951616896,-156
599616744959303296,-84
599616744966989568,-30
599616744974675840,39
599616744982362112,9
599616744990048384,-32
599616744997734656,-9
599616745005420928,0
599616745013107200,-14
599616745020793472,-11
599616745028479872,-4
599616745036166144,-7
599616745043852416,-4
599616745051538688,0
599616745059224960,0
599616745066911232,2
599616745074597504,7
599616745082283776,9
599616745089970048,11
599616745097656320,18
599616745105342720,23
599616745113028992,25
599616745120715264,30
599616745128401536,37
599616745136087808,44
599616745143774080,51
599616745151460352,56
599616745159146624,63
599616745166832896,65
599616745174519296,65
599616745182205568,65
599616745189891840,63
599616745197578112,51
599616745205264384,32
599616745212950656,9
599616745220636928,-18
599616745228323200,-42
599616745236009472,-58
599616745243695872,-65
599616745251382144,-72
599616745259068416,-77
599616745266754688,-74
599616745274440960,-70
599616745282127232,-67
599616745289813504,-65
599616745297499776,-63
599616745305186048,-60
599616745312872320,-56
599616745320558720,-53
599616745328244992,-51
599616745335931264,-49
599616745343617536,-46
599616745351303808,-46
599616745358990080,-42
599616745366676352,-39
599616745374362624,-39
599616745382048896,-39
599616745389735296,-35
599616745397421568,-35
599616745405107840,-35
599616745412794112,-35
599616745420480384,-32
599616745428166656,-32
599616745435852928,-32
599616745443539200,-32
599616745451225472,-30
599616745458911872,-30
599616745466598144,-32
599616745474284378,-35
599616745481970688,-35
599616745489656960,-32
599616745497343232,-32
599616745505029504,-32
599616745512715776,-32
599616745520402176,-30
599616745528088448,-32
599616745535774720,-35
599616745543460992,-32
599616745551147264,-30
599616745558833536,-30
599616745566519808,-32
599616745574206080,-30
599616745581892352,-28
599616745589578752,-30
599616745597265024,-30
599616745604951296,-28
599616745612637568,-28
599616745620323840,-28
599616745628010112,-28
599616745635696384,-28
599616745643382656,-25
599616745651068928,-25
599616745658755200,-23
599616745666441600,-23
599616745674127872,-23
599616745681814144,-25
599616745689500416,-25
599616745697186688,-23
599616745704872960,-23
599616745712559232,-23
599616745720245504,-23
599616745727931776,-23
599616745735618176,-23
599616745743304448,-21
599616745750990720,-23
599616745758676992,-21
599616745766363264,-21
599616745774049536,-21
599616745781735808,-21
599616745789422080,-18
599616745797108352,-18
599616745804794752,-18
599616745812481024,-18
599616745820167296,-18
599616745827853568,-16
599616745835539840,-14
599616745843226112,-18
599616745850912384,-18
599616745858598656,0
599616745866284928,16
599616745873971200,9
599616745881657600,0
599616745889343872,2
599616745897030144,-7
599616745904716416,-28
599616745912402688,-32
599616745920088960,-21
599616745927775232,-18
599616745935461504,-23
599616745943147776,-18
599616745950834176,-18
599616745958520448,-21
599616745966206720,-21
599616745973892992,-46
599616745981579264,-126
599616745989265536,-173
599616745996951808,-4
599616746004638080,348
599616746012324352,547
599616746020010752,304
599616746027697024,-159
599616746035383239,-320
599616746043069568,-173
599616746050755840,-81
599616746058442112,-37
599616746066128384,25
599616746073814656,2
599616746081501056,-37
599616746089187328,-14
599616746096873600,-4
599616746104559872,-21
599616746112246144,-18
599616746119932416,-9
599616746127618688,-11
599616746135304960,-11
599616746142991232,-7
599616746150677632,-4
599616746158363904,-2
599616746166050176,0
599616746173736448,4
599616746181422720,7
599616746189108992,11
599616746196795264,16
599616746204481536,21
599616746212167808,28
599616746219854080,35
599616746227540480,37
599616746235226752,44
599616746242913024,53
599616746250599296,60
599616746258285568,63
599616746265971840,67
599616746273658112,65
599616746281344384,60
599616746289030656,53
599616746296717056,39
599616746304403328,18
599616746312089600,-9
599616746319775872,-35
599616746327462144,-51
599616746335148416,-60
599616746342834688,-70
599616746350520960,-74
599616746358207232,-72
599616746365893632,-70
599616746373579904,-67
599616746381266176,-63
599616746388952448,-60
599616746396638720,-56
599616746404324992,-56
599616746412011264,-53
599616746419697536,-49
599616746427383808,-46
599616746435070080,-44
599616746442756480,-42
599616746450442752,-42
599616746458129024,-42
599616746465815296,-39
599616746473501568,-39
599616746481187840,-42
599616746488874112,-42
599616746496560384,-37
599616746504246656,-37
599616746511933056,-37
599616746519619328,-35
599616746527305600,-35
599616746534991872,-35
599616746542678144,-35
599616746550364416,-35
599616746558050688,-35
599616746565736960,-32
599616746573423232,-32
599616746581109632,-35
599616746588795904,-35
599616746596482100,-32
599616746604168320,-30
599616746611854592,-32
599616746619540864,-32
599616746627227136,-32
599616746634913408,-30
599616746642599808,-32
599616746650286080,-35
599616746657972352,-32
599616746665658624,-30
599616746673344896,-32
599616746681031168,-32
599616746688717440,-32
599616746696403712,-32
599616746704089984,-32
599616746711776384,-30
599616746719462656,-28
599616746727148928,-28
599616746734835200,-28
599616746742521472,-28
599616746750207744,-25
599616746757894016,-25
599616746765580288,-25
599616746773266560,-25
599616746780952832,-25
599616746788639232,-25
599616746796325504,-28
599616746804011776,-25
599616746811698048,-23
599616746819384320,-25
599616746827070592,-25
599616746834756864,-23
599616746842443136,-23
599616746850129408,-23
599616746857815808,-21
599616746865502080,-21
599616746873188352,-23
599616746880874624,-23
599616746888560896,-23
599616746896247168,-21
599616746903933440,-21
599616746911619712,-25
599616746919305984,-28
599616746926992384,-7
599616746934678656,11
599616746942364928,4
599616746950051200,-2
599616746957737472,-2
599616746965423744,-14
599616746973110016,-32
599616746980796288,-35
599616746988482560,-28
599616746996168832,-28
599616747003855232,-30
599616747011541504,-30
599616747019227776,-28
599616747026914048,-25
599616747034600320,-25
599616747042286592,-42
599616747049972864,-112
599616747057659136,-168
599616747065345408,-30
599616747073031808,301
599616747080718080,503
599616747088404352,276
599616747096090624,-182
599616747103776896,-348
599616747111463168,-191
599616747119149440,-93
599616747126835712,-49
599616747134521984,35
599616747142208384,28
599616747149894656,-25
599616747157580961,-11
599616747165267200,4
599616747172953472,-9
599616747180639744,-7
599616747188326016,0
599616747196012288,-2
599616747203698688,-2
599616747211384960,2
599616747219071232,0
599616747226757504,0
599616747234443776,7
599616747242130048,9
599616747249816320,11
599616747257502592,18
599616747265188864,23
599616747272875264,25
599616747280561536,32
599616747288247808,39
599616747295934080,46
599616747303620352,51
599616747311306624,58
599616747318992896,65
599616747326679168,70
599616747334365440,67
599616747342051712,65
599616747349738112,63
599616747357424384,56
599616747365110656,39
599616747372796928,16
599616747380483200,-11
599616747388169472,-39
599616747395855744,-58
599616747403542016,-67
599616747411228288,-72
599616747418914688,-77
599616747426600960,-81
599616747434287232,-74
599616747441973504,-70
599616747449659776,-70
599616747457346048,-65
599616747465032320,-60
599616747472718592,-60
599616747480404864,-58
599616747488091264,-53
599616747495777536,-56
599616747503463808,-53
599616747511150080,-49
599616747518836352,-49
599616747526522624,-46
599616747534208896,-42
599616747541895168,-42
599616747549581440,-39
599616747557267712,-39
599616747564954112,-39
599616747572640384,-37
599616747580326656,-35
599616747588012928,-32
599616747595699200,-35
599616747603385472,-37
599616747611071744,-35
599616747618758016,-30
599616747626444288,-32
599616747634130688,-35
599616747641816960,-32
599616747649503232,-30
599616747657189504,-30
599616747664875776,-32
599616747672562048,-32
599616747680248320,-28
599616747687934592,-25
599616747695620864,-28
599616747703307264,-28
599616747710993536,-28
599616747718679822,-28
599616747726366080,-28
599616747734052352,-25
599616747741738624,-25
599616747749424896,-30
599616747757111168,-32
599616747764797568,-30
599616747772483840,-28
599616747780170112,-28
599616747787856384,-30
599616747795542656,-28
599616747803228928,-28
599616747810915200,-28
599616747818601472,-28
599616747826287744,-25
599616747833974144,-25
599616747841660416,-28
599616747849346688,-25
599616747857032960,-23
599616747864719232,-23
599616747872405504,-23
599616747880091776,-21
599616747887778048,-23
599616747895464320,-21
599616747903150592,-21
599616747910836992,-18
599616747918523264,-18
599616747926209536,-21
599616747933895808,-23
599616747941582080,-9
599616747949268352,7
599616747956954624,7
599616747964640896,0
599616747972327168,-4
599616747980013568,-16
599616747987699840,-35
599616747995386112,-42
599616748003072384,-30
599616748010758656,-25
599616748018444928,-30
599616748026131200,-30
599616748033817472,-30
599616748041503744,-30
599616748049190144,-28
599616748056876416,-44
599616748064562688,-107
599616748072248960,-163
599616748079935232,-32
599616748087621504,285
599616748095307776,463
599616748102994048,219
599616748110680320,-217
599616748118366720,-341
599616748126052992,-184
599616748133739264,-102
599616748141425536,-46
599616748149111808,49
599616748156798080,37
599616748164484352,-21
599616748172170624,-4
599616748179856896,16
599616748187543168,-2
599616748195229568,-2
599616748202915840,7
599616748210602112,4
599616748218288384,4
599616748225974656,9
599616748233660928,9
599616748241347200,11
599616748249033472,16
599616748256719744,21
599616748264406144,21
599616748272092416,25
599616748279778687,32
599616748287464960,37
599616748295151232,39
599616748302837504,44
599616748310523776,53
599616748318210048,60
599616748325896448,65
599616748333582720,72
599616748341268992,77
599616748348955264,74
599616748356641536,67
599616748364327808,63
599616748372014080,56
599616748379700352,37
599616748387386624,11
599616748395073024,-16
599616748402759296,-39
599616748410445568,-58
599616748418131840,-70
599616748425818112,-74
599616748433504384,-77
599616748441190656,-77
599616748448876928,-74
599616748456563200,-70
599616748464249472,-65
599616748471935872,-63
599616748479622144,-60
599616748487308416,-58
599616748494994688,-58
599616748502680960,-60
599616748510367232,-56
599616748518053504,-49
599616748525739776,-49
599616748533426048,-49
599616748541112448,-44
599616748548798720,-42
599616748556484992,-39
599616748564171264,-37
599616748571857536,-37
599616748579543808,-37
599616748587230080,-35
599616748594916352,-32
599616748602602624,-32
599616748610289024,-32
599616748617975296,-30
599616748625661568,-30
599616748633347840,-30
599616748641034112,-28
599616748648720384,-28
599616748656406656,-30
599616748664092928,-30
599616748671779200,-30
599616748679465472,-30
599616748687151872,-30
599616748694838144,-28
599616748702524416,-28
599616748710210688,-28
599616748717896960,-28
599616748725583232,-25
599616748733269504,-25
599616748740955776,-25
599616748748642048,-25
599616748756328448,-25
599616748764014720,-23
599616748771700992,-23
599616748779387264,-23
599616748787073536,-23
599616748794759808,-21
599616748802446080,-23
599616748810132352,-23
599616748817818624,-21
599616748825505024,-21
599616748833191296,-23
599616748840877548,-23
599616748848563840,-21
599616748856250112,-21
599616748863936384,-18
599616748871622656,-18
599616748879308928,-18
599616748886995328,-18
599616748894681600,-18
599616748902367872,-21
599616748910054144,-21
599616748917740416,-21
599616748925426688,-23
599616748933112960,-21
599616748940799232,-21
599616748948485504,-23
599616748956171904,-11
599616748963858176,7
599616748971544448,7
599616748979230720,-4
599616748986916992,-4
599616748994603264,-11
599616749002289536,-35
599616749009975808,-42
599616749017662080,-30
599616749025348352,-25
599616749033034752,-30
599616749040721024,-30
599616749048407296,-25
599616749056093568,-25
599616749063779840,-28
599616749071466112,-44
599616749079152384,-105
599616749086838656,-159
599616749094524928,-42
599616749102211328,266
599616749109897600,472
599616749117583872,276
599616749125270144,-159
599616749132956416,-329
599616749140642688,-191
599616749148328960,-91
599616749156015232,-42
599616749163701504,37
599616749171387904,30
599616749179074176,-21
599616749186760448,-7
599616749194446720,9
599616749202132992,-4
599616749209819264,-4
599616749217505536,4
599616749225191808,2
599616749232878080,2
599616749240564352,7
599616749248250752,9
599616749255937024,7
599616749263623296,11
599616749271309568,16
599616749278995840,18
599616749286682112,21
599616749294368384,25
599616749302054656,32
599616749309740928,35
599616749317427328,39
599616749325113600,46
599616749332799872,53
599616749340486144,58
599616749348172416,65
599616749355858688,70
599616749363544960,70
599616749371231232,67
599616749378917504,63
599616749386603904,56
599616749394290176,42
599616749401976409,18
599616749409662976,-7
599616749417349504,-32
599616749425036160,-51
599616749432722688,-63
599616749440409216,-67
599616749448095744,-70
599616749455782400,-72
599616749463468928,-72
599616749471155456,-70
599616749478842112,-65
599616749486528640,-63
599616749494215168,-60
599616749501901696,-63
599616749509588352,-63
599616749517274880,-58
599616749524961408,-56
599616749532648064,-53
599616749540334592,-51
599616749548021120,-49
599616749555707648,-46
599616749563394304,-44
599616749571080832,-42
599616749578767360,-39
599616749586454016,-39
599616749594140544,-39
599616749601827072,-35
599616749609513600,-35
599616749617200256,-35
599616749624886784,-35
599616749632573312,-32
599616749640259968,-32
599616749647946496,-32
599616749655633024,-32
599616749663319552,-32
599616749671006208,-32
599616749678692736,-32
599616749686379264,-32
599616749694065920,-30
599616749701752448,-30
599616749709438976,-30
599616749717125504,-30
599616749724812160,-30
599616749732498688,-32
599616749740185216,-32
599616749747871872,-28
599616749755558400,-28
599616749763244928,-28
599616749770931456,-28
599616749778618112,-28
599616749786304640,-28
599616749793991168,-28
599616749801677824,-25
599616749809364352,-25
599616749817050880,-28
599616749824737408,-28
599616749832424064,-25
599616749840110592,-25
599616749847797120,-25
599616749855483776,-25
599616749863170304,-25
599616749870856832,-25
599616749878543360,-25
599616749886230016,-25
599616749893916544,-25
599616749901603072,-25
599616749909289728,-23
599616749916976256,-23
599616749924662784,-23
599616749932349312,-23
599616749940035968,-23
599616749947722496,-23
599616749955409024,-23
599616749963095618,-23
599616749970782080,-21
599616749978468480,-21
599616749986154880,-21
599616749993841408,-21
599616750001527808,-21
599616750009214208,-23
599616750016900608,-28
599616750024587008,-30
599616750032273536,-18
599616750039959936,-2
599616750047646336,0
599616750055332736,-9
599616750063019136,-11
599616750070705664,-11
599616750078392064,-28
599616750086078464,-42
599616750093764864,-37
599616750101451264,-30
599616750109137792,-30
599616750116824192,-30
599616750124510592,-28
599616750132196992,-28
599616750139883392,-25
599616750147569920,-35
599616750155256320,-88
599616750162942720,-168
599616750170629120,-109
599616750178315520,189
599616750186001920,500
599616750193688448,453
599616750201374848,18
599616750209061248,-311
599616750216747648,-243
599616750224434048,-105
599616750232120576,-65
599616750239806976,2
599616750247493376,23
599616750255179776,-28
599616750262866176,-28
599616750270552704,-2
599616750278239104,-14
599616750285925504,-21
599616750293611904,-9
599616750301298304,-7
599616750308984832,-11
599616750316671232,-7
599616750324357632,-4
599616750332044032,-4
599616750339730432,-2
599616750347416960,4
599616750355103360,7
599616750362789760,9
599616750370476160,14
599616750378162560,18
599616750385849088,23
599616750393535488,28
599616750401221888,35
599616750408908288,44
599616750416594688,49
599616750424281216,53
599616750431967616,60
599616750439654016,63
599616750447340416,63
599616750455026816,60
599616750462713344,56
599616750470399744,42
599616750478086144,23
599616750485772544,0
599616750493458944,-28
599616750501145472,-46
599616750508831872,-60
599616750516518272,-74
599616750524204649,-79
599616750531890944,-77
599616750539577216,-79
599616750547263488,-77
599616750554949760,-72
599616750562636032,-70
599616750570322432,-67
599616750578008704,-67
599616750585694976,-65
599616750593381248,-60
599616750601067520,-60
599616750608753792,-58
599616750616440064,-56
599616750624126336,-51
599616750631812608,-49
599616750639499008,-49
599616750647185280,-46
599616750654871552,-44
599616750662557824,-44
599616750670244096,-42
599616750677930368,-39
599616750685616640,-39
599616750693302912,-42
599616750700989184,-39
599616750708675456,-35
599616750716361856,-35
599616750724048128,-37
599616750731734400,-35
599616750739420672,-35
599616750747106944,-32
599616750754793216,-35
599616750762479488,-32
599616750770165760,-30
599616750777852032,-30
599616750785538432,-32
599616750793224704,-32
599616750800910976,-30
599616750808597248,-28
599616750816283520,-28
599616750823969792,-28
599616750831656064,-28
599616750839342336,-28
599616750847028608,-25
599616750854715008,-28
599616750862401280,-25
599616750870087552,-25
599616750877773824,-25
599616750885460096,-25
599616750893146368,-23
599616750900832640,-23
599616750908518912,-23
599616750916205184,-23
599616750923891456,-23
599616750931577856,-23
599616750939264128,-21
599616750946950400,-21
599616750954636672,-23
599616750962322944,-23
599616750970009216,-21
599616750977695488,-21
599616750985381760,-21
599616750993068032,-21
599616751000754432,-18
599616751008440704,-18
599616751016126976,-21
599616751023813248,-25
599616751031499520,-25
599616751039185792,-23
599616751046872064,-23
599616751054558336,-23
599616751062244608,-25
599616751069931008,-23
599616751077617280,-21
599616751085303510,-18
599616751092989824,-21
599616751100676096,-23
599616751108362368,-9
599616751116048640,7
599616751123734912,2
599616751131421312,-11
599616751139107584,-9
599616751146793856,-14
599616751154480128,-35
599616751162166400,-42
599616751169852672,-30
599616751177538944,-28
599616751185225216,-30
599616751192911488,-28
599616751200597888,-25
599616751208284160,-28
599616751215970432,-25
599616751223656704,-39
599616751231342976,-107
599616751239029248,-168
599616751246715520,-37
599616751254401792,290
599616751262088064,500
599616751269774336,283
599616751277460736,-177
599616751285147008,-355
599616751292833280,-203
599616751300519552,-100
599616751308205824,-51
599616751315892096,39
599616751323578368,37
599616751331264640,-21
599616751338950912,-4
599616751346637312,14
599616751354323584,-2
599616751362009856,-2
599616751369696128,7
599616751377382400,4
599616751385068672,2
599616751392754944,7
599616751400441216,11
599616751408127488,11
599616751415813888,14
599616751423500160,18
599616751431186432,23
599616751438872704,25
599616751446558976,28
599616751454245248,32
599616751461931520,39
599616751469617792,44
599616751477304064,51
599616751484990464,56
599616751492676736,63
599616751500363008,67
599616751508049280,72
599616751515735552,74
599616751523421824,72
599616751531108096,63
599616751538794368,51
599616751546480640,39
599616751554166912,16
599616751561853312,-11
599616751569539584,-37
599616751577225856,-56
599616751584912128,-67
599616751592598400,-74
599616751600284672,-77
599616751607970944,-77
599616751615657216,-74
599616751623343488,-74
599616751631029888,-70
599616751638716160,-67
599616751646402375,-63
599616751654088704,-60
599616751661774976,-58
599616751669461248,-56
599616751677147520,-53
599616751684833792,-51
599616751692520192,-46
599616751700206464,-44
599616751707892736,-46
599616751715579008,-46
599616751723265280,-44
599616751730951552,-42
599616751738637824,-39
599616751746324096,-37
599616751754010368,-37
599616751761696768,-37
599616751769383040,-37
599616751777069312,-35
599616751784755584,-35
599616751792441856,-35
599616751800128128,-35
599616751807814400,-35
599616751815500672,-35
599616751823186944,-32
599616751830873216,-32
599616751838559616,-32
599616751846245888,-30
599616751853932160,-30
599616751861618432,-32
599616751869304704,-30
599616751876990976,-30
599616751884677248,-28
599616751892363520,-30
599616751900049792,-30
599616751907736192,-28
599616751915422464,-25
599616751923108736,-25
599616751930795008,-28
599616751938481280,-25
599616751946167552,-25
599616751953853824,-28
599616751961540096,-25
599616751969226368,-23
599616751976912768,-23
599616751984599040,-23
599616751992285312,-23
599616751999971584,-23
599616752007657856,-23
599616752015344128,-23
599616752023030400,-23
599616752030716672,-23
599616752038402944,-28
599616752046089216,-30
599616752053775616,-25
599616752061461888,-25
599616752069148160,-23
599616752076834432,-23
599616752084520704,-21
599616752092206976,-23
599616752099893248,-23
599616752107579520,-9
599616752115265792,9
599616752122952192,2
599616752130638464,-9
599616752138324736,-9
599616752146011008,-23
599616752153697280,-39
599616752161383552,-35
599616752169069824,-25
599616752176756096,-28
599616752184442368,-28
599616752192128768,-23
599616752199815040,-23
599616752207501236,-23
599616752215187712,-28
599616752222874240,-63
599616752230560640,-138
599616752238247168,-135
599616752245933696,93
599616752253620224,411
599616752261306624,439
599616752268993152,60
599616752276679680,-308
599616752284366208,-292
599616752292052608,-138
599616752299739136,-86
599616752307425664,-9
599616752315112192,49
599616752322798592,2
599616752330485120,-23
599616752338171648,4
599616752345858176,4
599616752353544576,-7
599616752361231104,0
599616752368917632,4
599616752376604160,2
599616752384290560,4
599616752391977088,7
599616752399663616,7
599616752407350144,9
599616752415036544,14
599616752422723072,18
599616752430409600,21
599616752438096000,23
599616752445782528,28
599616752453469056,35
599616752461155584,42
599616752468841984,46
599616752476528512,51
599616752484215040,60
599616752491901568,67
599616752499587968,70
599616752507274496,74
599616752514961024,74
599616752522647552,72
599616752530333952,65
599616752538020480,51
599616752545707008,28
599616752553393536,0
599616752561079936,-23
599616752568766464,-49
599616752576452992,-63
599616752584139520,-70
599616752591825920,-74
599616752599512448,-77
599616752607198976,-74
599616752614885504,-70
599616752622571904,-67
599616752630258432,-65
599616752637944960,-63
599616752645631360,-60
599616752653317888,-58
599616752661004416,-53
599616752668690944,-51
599616752676377344,-49
599616752684063872,-49
599616752691750400,-44
599616752699436928,-39
599616752707123328,-42
599616752714809856,-39
599616752722496384,-35
599616752730182912,-37
599616752737869312,-37
599616752745555840,-32
599616752753242368,-30
599616752760928896,-30
599616752768615358,-32
599616752776301824,-32
599616752783988352,-30
599616752791674752,-28
599616752799361280,-28
599616752807047808,-28
599616752814734336,-30
599616752822420736,-32
599616752830107264,-32
599616752837793792,-30
599616752845480320,-30
599616752853166720,-32
599616752860853248,-30
599616752868539776,-30
599616752876226304,-30
599616752883912704,-30
599616752891599232,-30
599616752899285760,-28
599616752906972288,-25
599616752914658688,-28
599616752922345216,-28
599616752930031744,-25
599616752937718272,-25
599616752945404672,-23
599616752953091200,-23
599616752960777728,-23
599616752968464256,-23
599616752976150656,-23
599616752983837184,-23
599616752991523712,-21
599616752999210112,-21
599616753006896640,-23
599616753014583168,-21
599616753022269696,-18
599616753029956096,-18
599616753037642624,-21
599616753045329152,-23
599616753053015680,-23
599616753060702080,-25
599616753068388608,-23
599616753076075136,-21
599616753083761664,-21
599616753091448064,-21
599616753099134592,-21
599616753106821120,-18
599616753114507648,-18
599616753122194048,-21
599616753129880576,-21
599616753137567104,-16
599616753145253632,-14
599616753152940032,-18
599616753160626560,-16
599616753168313088,4
599616753175999488,16
599616753183686016,4
599616753191372544,-2
599616753199059072,0
599616753206745472,-16
599616753214432000,-35
599616753222118528,-28
599616753229805056,-16
599616753237491456,-21
599616753245177984,-23
599616753252864512,-18
599616753260551040,-16
599616753268237440,-18
599616753275923968,-28
599616753283610496,-79
599616753291297024,-156
599616753298983424,-102
599616753306669952,184
599616753314356480,488
599616753322043008,442
599616753329729476,14
599616753337415808,-313
599616753345102080,-240
599616753352788352,-95
599616753360474624,-58
599616753368160896,9
599616753375847296,32
599616753383533568,-21
599616753391219840,-23
599616753398906112,0
599616753406592384,-9
599616753414278656,-14
599616753421964928,-7
599616753429651200,-7
599616753437337472,-9
599616753445023872,-4
599616753452710144,-2
599616753460396416,-2
599616753468082688,0
599616753475768960,7
599616753483455232,9
599616753491141504,11
599616753498827776,16
599616753506514048,21
599616753514200320,23
599616753521886720,30
599616753529572992,35
599616753537259264,42
599616753544945536,51
599616753552631808,53
599616753560318080,53
599616753568004352,60
599616753575690624,60
599616753583376896,58
599616753591063296,56
599616753598749568,42
599616753606435840,23
599616753614122112,0
599616753621808384,-25
599616753629494656,-46
599616753637180928,-60
599616753644867200,-67
599616753652553472,-74
599616753660239872,-77
599616753667926144,-74
599616753675612416,-70
599616753683298688,-67
599616753690984960,-65
599616753698671232,-63
599616753706357504,-58
599616753714043776,-56
599616753721730048,-53
599616753729416320,-53
599616753737102720,-49
599616753744788992,-46
599616753752475264,-46
599616753760161536,-44
599616753767847808,-39
599616753775534080,-39
599616753783220352,-39
599616753790906624,-37
599616753798592896,-37
599616753806279296,-37
599616753813965568,-35
599616753821651840,-35
599616753829338112,-32
599616753837024384,-32
599616753844710656,-32
599616753852396928,-32
599616753860083200,-32
599616753867769472,-30
599616753875455872,-30
599616753883142144,-30
599616753890828337,-28
599616753898514560,-28
599616753906200832,-30
599616753913887104,-28
599616753921573376,-28
599616753929259648,-30
599616753936946048,-30
599616753944632320,-30
599616753952318592,-28
599616753960004864,-30
599616753967691136,-30
599616753975377408,-30
599616753983063680,-28
599616753990749952,-28
599616753998436224,-28
599616754006122624,-28
599616754013808896,-25
599616754021495168,-28
599616754029181440,-28
599616754036867712,-28
599616754044553984,-28
599616754052240256,-30
599616754059926528,-32
599616754067612800,-30
599616754075299072,-28
599616754082985472,-30
599616754090671744,-30
599616754098358016,-28
599616754106044288,-25
599616754113730560,-28
599616754121416832,-25
599616754129103104,-25
599616754136789376,-23
599616754144475648,-23
599616754152162048,-25
599616754159848320,-23
599616754167534592,-23
599616754175220864,-23
599616754182907136,-23
599616754190593408,-21
599616754198279680,-21
599616754205965952,-21
599616754213652224,-21
599616754221338624,-18
599616754229024896,-18
599616754236711168,-18
599616754244397440,-21
599616754252083712,-18
599616754259769984,0
599616754267456256,14
599616754275142528,2
599616754282828800,-4
599616754290515072,-2
599616754298201472,-16
599616754305887744,-37
599616754313574016,-32
599616754321260288,-21
599616754328946560,-25
599616754336632832,-25
599616754344319104,-23
599616754352005376,-23
599616754359691648,-23
599616754367378048,-25
599616754375064320,-70
599616754382750592,-156
599616754390436864,-138
599616754398123136,128
599616754405809408,467
599616754413495680,503
599616754421181952,112
599616754428868224,-280
599616754436554624,-276
599616754444240896,-121
599616754451927198,-72
599616754459613568,-7
599616754467299968,37
599616754474986240,-14
599616754482672640,-30
599616754490359040,0
599616754498045312,-7
599616754505731712,-21
599616754513418112,-11
599616754521104384,-7
599616754528790784,-11
599616754536477184,-7
599616754544163456,-2
599616754551849856,-2
599616754559536128,-4
599616754567222528,0
599616754574908928,4
599616754582595200,7
599616754590281600,11
599616754597968000,16
599616754605654272,21
599616754613340672,28
599616754621027072,35
599616754628713344,42
599616754636399744,46
599616754644086144,53
599616754651772416,60
599616754659458816,63
599616754667145216,65
599616754674831488,65
599616754682517888,56
599616754690204288,44
599616754697890560,30
599616754705576960,7
599616754713263360,-23
599616754720949632,-44
599616754728636032,-58
599616754736322304,-67
599616754744008704,-74
599616754751695104,-77
599616754759381376,-74
599616754767067776,-72
599616754774754176,-70
599616754782440448,-65
599616754790126848,-63
599616754797813248,-60
599616754805499520,-58
599616754813185920,-56
599616754820872320,-56
599616754828558592,-53
599616754836244992,-49
599616754843931392,-46
599616754851617664,-44
599616754859304064,-44
599616754866990464,-42
599616754874676736,-39
599616754882363136,-39
599616754890049536,-37
599616754897735808,-39
599616754905422208,-37
599616754913108480,-37
599616754920794880,-35
599616754928481280,-32
599616754936167552,-32
599616754943853952,-32
599616754951540352,-35
599616754959226624,-32
599616754966913024,-30
599616754974599424,-30
599616754982285696,-30
599616754989972096,-32
599616754997658496,-32
599616755005344768,-30
599616755013031150,-28
599616755020717824,-30
599616755028404480,-30
599616755036091136,-30
599616755043777664,-30
599616755051464320,-32
599616755059150976,-35
599616755066837632,-35
599616755074524288,-32
599616755082210944,-32
599616755089897472,-32
599616755097584128,-32
599616755105270784,-35
599616755112957440,-35
599616755120644096,-32
599616755128330752,-32
599616755136017280,-35
599616755143703936,-32
599616755151390592,-30
599616755159077248,-30
599616755166763904,-30
599616755174450560,-28
599616755182137088,-30
599616755189823744,-28
599616755197510400,-28
599616755205197056,-25
599616755212883712,-25
599616755220570368,-23
599616755228256896,-23
599616755235943552,-23
599616755243630208,-23
599616755251316864,-23
599616755259003520,-21
599616755266690176,-18
599616755274376704,-23
599616755282063360,-16
599616755289750016,2
599616755297436672,9
599616755305123328,-4
599616755312809984,-7
599616755320496512,-11
599616755328183168,-32
599616755335869824,-39
599616755343556480,-28
599616755351243136,-25
599616755358929664,-28
599616755366616320,-25
599616755374302976,-25
599616755381989632,-25
599616755389676288,-23
599616755397362944,-37
599616755405049472,-100
599616755412736128,-163
599616755420422784,-51
599616755428109440,266
599616755435796096,481
599616755443482752,278
599616755451169280,-173
599616755458855936,-348
599616755466542592,-201
599616755474229248,-107
599616755481915904,-58
599616755489602560,42
599616755497289088,44
599616755504975744,-18
599616755512662400,-4
599616755520349056,16
599616755528035712,0
599616755535722368,-2
599616755543408896,7
599616755551095552,7
599616755558782208,2
599616755566468864,4
599616755574155442,9
599616755581841664,11
599616755589527936,11
599616755597214208,16
599616755604900480,21
599616755612586752,23
599616755620273152,25
599616755627959424,32
599616755635645696,37
599616755643331968,39
599616755651018240,44
599616755658704512,53
599616755666390784,63
599616755674077056,65
599616755681763328,67
599616755689449728,72
599616755697136000,70
599616755704822272,65
599616755712508544,58
599616755720194816,44
599616755727881088,21
599616755735567360,-9
599616755743253632,-37
599616755750939904,-56
599616755758626176,-65
599616755766312576,-72
599616755773998848,-77
599616755781685120,-77
599616755789371392,-74
599616755797057664,-72
599616755804743936,-67
599616755812430208,-63
599616755820116480,-63
599616755827802752,-60
599616755835489152,-56
599616755843175424,-53
599616755850861696,-51
599616755858547968,-51
599616755866234240,-49
599616755873920512,-46
599616755881606784,-44
599616755889293056,-42
599616755896979328,-39
599616755904665728,-39
599616755912352000,-37
599616755920038272,-35
599616755927724544,-30
599616755935410816,-32
599616755943097088,-32
599616755950783360,-30
599616755958469632,-30
599616755966155904,-30
599616755973842176,-32
599616755981528576,-30
599616755989214848,-28
599616755996901120,-28
599616756004587392,-30
599616756012273664,-30
599616756019959936,-30
599616756027646208,-30
599616756035332480,-28
599616756043018752,-28
599616756050705152,-28
599616756058391424,-30
599616756066077696,-30
599616756073763968,-32
599616756081450240,-30
599616756089136512,-30
599616756096822784,-30
599616756104509056,-30
599616756112195328,-28
599616756119881728,-28
599616756127568000,-28
599616756135254303,-28
599616756142940544,-28
599616756150626816,-28
599616756158313088,-28
599616756165999360,-23
599616756173685632,-23
599616756181372032,-28
599616756189058304,-25
599616756196744576,-23
599616756204430848,-23
599616756212117120,-25
599616756219803392,-28
599616756227489664,-25
599616756235175936,-25
599616756242862208,-25
599616756250548608,-23
599616756258234880,-18
599616756265921152,-21
599616756273607424,-25
599616756281293696,-16
599616756288979968,7
599616756296666240,7
599616756304352512,-7
599616756312038784,-9
599616756319725056,-16
599616756327411456,-35
599616756335097728,-39
599616756342784000,-30
599616756350470272,-25
599616756358156544,-28
599616756365842816,-25
599616756373529088,-23
599616756381215360,-23
599616756388901632,-25
599616756396588032,-46
599616756404274304,-116
599616756411960576,-159
599616756419646848,4
599616756427333120,332
599616756435019392,491
599616756442705664,226
599616756450391936,-212
599616756458078208,-327
599616756465764608,-170
599616756473450880,-86
599616756481137152,-35
599616756488823424,39
599616756496509696,18
599616756504195968,-25
599616756511882240,-4
599616756519568512,7
599616756527254784,-7
599616756534941056,-4
599616756542627456,2
599616756550313728,0
599616756558000000,0
599616756565686272,4
599616756573372544,4
599616756581058816,4
599616756588745088,7
599616756596431360,11
599616756604117632,11
599616756611804032,16
599616756619490304,23
599616756627176576,28
599616756634862848,32
599616756642549120,37
599616756650235392,44
599616756657921664,53
599616756665607936,58
599616756673294208,63
599616756680980608,67
599616756688666880,70
599616756696353164,65
599616756704039424,60
599616756711725696,53
599616756719411968,39
599616756727098240,14
599616756734784512,-14
599616756742470912,-39
599616756750157184,-58
599616756757843456,-70
599616756765529728,-77
599616756773216000,-77
599616756780902272,-77
599616756788588544,-77
599616756796274816,-72
599616756803961088,-67
599616756811647488,-65
599616756819333760,-63
599616756827020032,-60
599616756834706304,-58
599616756842392576,-56
599616756850078848,-53
599616756857765120,-49
599616756865451392,-46
599616756873137664,-46
599616756880823936,-44
599616756888510336,-39
599616756896196608,-39
599616756903882880,-39
599616756911569152,-37
599616756919255424,-35
599616756926941696,-35
599616756934627968,-35
599616756942314240,-32
599616756950000512,-30
599616756957686912,-32
599616756965373184,-32
599616756973059456,-32
599616756980745728,-30
599616756988432000,-30
599616756996118272,-30
599616757003804544,-30
599616757011490816,-30
599616757019177088,-30
599616757026863488,-28
599616757034549760,-28
599616757042236032,-25
599616757049922304,-28
599616757057608576,-28
599616757065294848,-28
599616757072981120,-25
599616757080667392,-28
599616757088353664,-30
599616757096039936,-30
599616757103726336,-28
599616757111412608,-28
599616757119098880,-28
599616757126785152,-25
599616757134471424,-25
599616757142157696,-25
599616757149843968,-23
599616757157530240,-23
599616757165216512,-23
599616757172902912,-23
599616757180589184,-23
599616757188275456,-23
599616757195961728,-21
599616757203648000,-21
599616757211334272,-21
599616757219020544,-21
599616757226706816,-21
599616757234393088,-21
599616757242079488,-21
599616757249765760,-21
599616757257452025,-18
599616757265138304,-18
599616757272824576,-18
599616757280510848,-18
599616757288197120,-21
599616757295883392,-23
599616757303569792,-25
599616757311256064,-21
599616757318942336,-21
599616757326628608,-23
599616757334314880,-21
599616757342001152,-18
599616757349687424,-16
599616757357373696,-18
599616757365059968,-18
599616757372746368,0
599616757380432640,14
599616757388118912,2
599616757395805184,-7
599616757403491456,0
599616757411177728,-14
599616757418864000,-35
599616757426550272,-32
599616757434236544,-21
599616757441922816,-23
599616757449609216,-25
599616757457295488,-21
599616757464981760,-21
599616757472668032,-21
599616757480354304,-25
599616757488040576,-67
599616757495726848,-152
599616757503413120,-138
599616757511099392,121
599616757518785792,465
599616757526472064,510
599616757534158336,128
599616757541844608,-271
599616757549530880,-273
599616757557217152,-119
599616757564903424,-70
599616757572589696,-7
599616757580275968,28
599616757587962368,-23
599616757595648640,-35
599616757603334912,-4
599616757611021184,-11
599616757618707456,-21
599616757626393728,-11
599616757634080000,-9
599616757641766272,-11
599616757649452544,-9
599616757657138816,-7
599616757664825216,-4
599616757672511488,-2
599616757680197760,2
599616757687884032,4
599616757695570304,9
599616757703256576,11
599616757710942848,16
599616757718629120,21
599616757726315392,28
599616757734001792,35
599616757741688064,39
599616757749374336,44
599616757757060608,51
599616757764746880,58
599616757772433152,63
599616757780119424,63
599616757787805696,63
599616757795491968,56
599616757803178368,46
599616757810864640,32
599616757818550886,9
599616757826237568,-16
599616757833924224,-39
599616757841611008,-56
599616757849297664,-65
599616757856984320,-74
599616757864671104,-77
599616757872357760,-77
599616757880044544,-72
599616757887731200,-70
599616757895417856,-67
599616757903104640,-65
599616757910791296,-60
599616757918477952,-58
599616757926164736,-56
599616757933851392,-53
599616757941538176,-51
599616757949224832,-49
599616757956911488,-46
599616757964598272,-42
599616757972284928,-39
599616757979971584,-37
599616757987658368,-37
599616757995345024,-37
599616758003031808,-37
599616758010718464,-35
599616758018405120,-32
599616758026091904,-32
599616758033778560,-32
599616758041465216,-32
599616758049152000,-32
599616758056838656,-30
599616758064525440,-30
599616758072212096,-32
599616758079898752,-32
599616758087585536,-32
599616758095272192,-35
599616758102958848,-35
599616758110645632,-32
599616758118332288,-32
599616758126019072,-32
599616758133705728,-32
599616758141392384,-32
599616758149079168,-30
599616758156765824,-30
599616758164452480,-30
599616758172139264,-30
599616758179825920,-30
599616758187512704,-28
599616758195199360,-30
599616758202886016,-30
599616758210572800,-30
599616758218259456,-30
599616758225946112,-30
599616758233632896,-28
599616758241319552,-25
599616758249006336,-25
599616758256692992,-25
599616758264379648,-25
599616758272066432,-25
599616758279753088,-23
599616758287439744,-23
599616758295126528,-21
599616758302813184,-21
599616758310499968,-23
599616758318186624,-23
599616758325873280,-21
599616758333560064,-21
599616758341246720,-21
599616758348933376,-21
599616758356620160,-21
599616758364306816,-21
599616758371993600,-21
599616758379680269,-21
599616758387366528,-21
599616758395052800,-21
599616758402739072,-21
599616758410425344,-18
599616758418111616,-18
599616758425798016,-16
599616758433484288,-16
599616758441170560,-18
599616758448856832,-18
599616758456543104,2
599616758464229376,16
599616758471915648,0
599616758479601920,-9
599616758487288192,-7
599616758494974592,-23
599616758502660864,-39
599616758510347136,-32
599616758518033408,-25
599616758525719680,-30
599616758533405952,-28
599616758541092224,-23
599616758548778496,-25
599616758556464768,-25
599616758564151040,-30
599616758571837440,-74
599616758579523712,-156
599616758587209984,-128
599616758594896256,142
599616758602582528,465
599616758610268800,453
599616758617955072,42
599616758625641344,-322
599616758633327616,-283
599616758641014016,-126
599616758648700288,-81
599616758656386560,-7
599616758664072832,39
599616758671759104,-16
599616758679445376,-30
599616758687131648,2
599616758694817920,-2
599616758702504192,-14
599616758710190592,-4
599616758717876864,-2
599616758725563136,-4
599616758733249408,-2
599616758740935680,0
599616758748621952,2
599616758756308224,7
599616758763994496,9
599616758771680768,11
599616758779367040,16
599616758787053440,21
599616758794739712,25
599616758802425984,30
599616758810112256,39
599616758817798528,42
599616758825484800,49
599616758833171072,56
599616758840857344,63
599616758848543616,65
599616758856230016,70
599616758863916288,67
599616758871602560,67
599616758879288832,63
599616758886975104,51
599616758894661376,35
599616758902347648,9
599616758910033920,-21
599616758917720192,-44
599616758925406592,-58
599616758933092864,-67
599616758940779130,-74
599616758948465408,-77
599616758956151680,-74
599616758963837952,-72
599616758971524224,-70
599616758979210496,-67
599616758986896896,-63
599616758994583168,-63
599616759002269440,-65
599616759009955712,-63
599616759017641984,-58
599616759025328256,-56
599616759033014528,-53
599616759040700800,-51
599616759048387072,-51
599616759056073472,-49
599616759063759744,-44
599616759071446016,-42
599616759079132288,-39
599616759086818560,-39
599616759094504832,-42
599616759102191104,-42
599616759109877376,-39
599616759117563648,-37
599616759125249920,-39
599616759132936320,-39
599616759140622592,-37
599616759148308864,-37
599616759155995136,-37
599616759163681408,-35
599616759171367680,-32
599616759179053952,-32
599616759186740224,-35
599616759194426496,-32
599616759202112896,-30
599616759209799168,-32
599616759217485440,-32
599616759225171712,-32
599616759232857984,-30
599616759240544256,-30
599616759248230528,-30
599616759255916800,-30
599616759263603072,-30
599616759271289472,-28
599616759278975744,-28
599616759286662016,-28
599616759294348288,-28
599616759302034560,-28
599616759309720832,-28
599616759317407104,-25
599616759325093376,-25
599616759332779648,-23
599616759340465920,-23
599616759348152320,-23
599616759355838592,-23
599616759363524864,-23
599616759371211136,-23
599616759378897408,-23
599616759386583680,-23
599616759394269952,-23
599616759401956224,-23
599616759409642496,-23
599616759417328896,-23
599616759425015168,-23
599616759432701440,-21
599616759440387712,-21
599616759448073984,-18
599616759455760256,-18
599616759463446528,-21
599616759471132800,-16
599616759478819072,2
599616759486505472,14
599616759494191744,4
599616759501877991,-4
599616759509564672,-7
599616759517251328,-23
599616759524938112,-37
599616759532624768,-28
599616759540311424,-21
599616759547998208,-25
599616759555684864,-25
599616759563371648,-21
599616759571058304,-23
599616759578744960,-28
599616759586431744,-30
599616759594118400,-70
599616759601805056,-154
599616759609491840,-135
599616759617178496,126
599616759624865280,435
599616759632551936,414
599616759640238592,7
599616759647925376,-332
599616759655612032,-278
599616759663298688,-128
599616759670985472,-84
599616759678672128,2
599616759686358912,53
599616759694045568,-2
599616759701732224,-21
599616759709419008,11
599616759717105664,4
599616759724792320,-7
599616759732479104,4
599616759740165760,7
599616759747852544,2
599616759755539200,7
599616759763225856,11
599616759770912640,11
599616759778599296,14
599616759786285952,16
599616759793972736,18
599616759801659392,23
599616759809346176,25
599616759817032832,30
599616759824719488,37
599616759832406272,39
599616759840092928,46
599616759847779584,53
599616759855466368,60
599616759863153024,65
599616759870839808,72
599616759878526464,72
599616759886213120,72
599616759893899904,72
599616759901586560,65
599616759909273216,53
599616759916960000,37
599616759924646656,9
599616759932333440,-18
599616759940020096,-42
599616759947706752,-56
599616759955393536,-67
599616759963080192,-72
599616759970766848,-72
599616759978453632,-72
599616759986140288,-70
599616759993827072,-67
599616760001513728,-63
599616760009200384,-60
599616760016887168,-58
599616760024573824,-56
599616760032260480,-53
599616760039947264,-51
599616760047633920,-49
599616760055320704,-46
599616760063007370,-44
599616760070693632,-44
599616760078379904,-42
599616760086066176,-39
599616760093752448,-37
599616760101438720,-39
599616760109125120,-42
599616760116811392,-44
599616760124497664,-42
599616760132183936,-37
599616760139870208,-37
599616760147556480,-39
599616760155242752,-37
599616760162929024,-37
599616760170615296,-35
599616760178301696,-35
599616760185987968,-35
599616760193674240,-32
599616760201360512,-32
599616760209046784,-32
599616760216733056,-30
599616760224419328,-30
599616760232105600,-30
599616760239791872,-30
599616760247478144,-30
599616760255164544,-30
599616760262850816,-30
599616760270537088,-28
599616760278223360,-28
599616760285909632,-25
599616760293595904,-28
599616760301282176,-28
599616760308968448,-25
599616760316654720,-25
599616760324341120,-25
599616760332027392,-25
599616760339713664,-25
599616760347399936,-23
599616760355086208,-23
599616760362772480,-23
599616760370458752,-23
599616760378145024,-23
599616760385831296,-23
599616760393517696,-23
599616760401203968,-21
599616760408890240,-21
599616760416576512,-21
599616760424262784,-21
599616760431949056,-21
599616760439635328,-21
599616760447321600,-21
599616760455007872,-21
599616760462694144,-21
599616760470380544,-21
599616760478066816,-21
599616760485753088,-18
599616760493439360,-18
599616760501125632,-16
599616760508811904,-16
599616760516498176,-18
599616760524184448,-14
599616760531870720,4
599616760539557120,11
599616760547243392,0
599616760554929664,0
599616760562615936,-2
599616760570302208,-23
599616760577988480,-37
599616760585674752,-28
599616760593361024,-21
599616760601047296,-25
599616760608733696,-25
599616760616419968,-28
599616760624106231,-30
599616760631792896,-28
599616760639479552,-37
599616760647166336,-95
599616760654852992,-170
599616760662539648,-88
599616760670226432,224
599616760677913088,510
599616760685599872,411
599616760693286528,-42
599616760700973184,-334
599616760708659968,-233
599616760716346624,-100
599616760724033280,-63
599616760731720064,7
599616760739406720,21
599616760747093504,-32
599616760754780160,-28
599616760762466816,-2
599616760770153600,-14
599616760777840256,-18
599616760785526912,-9
599616760793213696,-9
599616760800900352,-11
599616760808587136,-7
599616760816273792,-2
599616760823960448,0
599616760831647232,2
599616760839333888,4
599616760847020544,9
599616760854707328,11
599616760862393984,16
599616760870080768,23
599616760877767424,28
599616760885454080,32
599616760893140864,37
599616760900827520,44
599616760908514176,53
599616760916200960,58
599616760923887616,63
599616760931574400,67
599616760939261056,67
599616760946947712,65
599616760954634496,60
599616760962321152,49
599616760970007808,30
599616760977694592,4
599616760985381248,-23
599616760993068032,-44
599616761000754688,-56
599616761008441344,-65
599616761016128128,-70
599616761023814784,-72
599616761031501440,-70
599616761039188224,-70
599616761046874880,-65
599616761054561664,-63
599616761062248320,-58
599616761069934976,-58
599616761077621760,-56
599616761085308416,-53
599616761092995072,-51
599616761100681856,-49
599616761108368512,-49
599616761116055296,-49
599616761123741952,-49
599616761131428608,-46
599616761139115392,-42
599616761146802048,-39
599616761154488704,-37
599616761162175488,-39
599616761169862144,-37
599616761177548928,-35
599616761185235614,-35
599616761192921856,-35
599616761200608128,-35
599616761208294400,-32
599616761215980672,-32
599616761223666944,-35
599616761231353344,-35
599616761239039616,-32
599616761246725888,-30
599616761254412160,-32
599616761262098432,-35
599616761269784704,-32
599616761277470976,-30
599616761285157248,-30
599616761292843520,-30
599616761300529920,-30
599616761308216192,-30
599616761315902464,-30
599616761323588736,-28
599616761331275008,-25
599616761338961280,-25
599616761346647552,-25
599616761354333824,-25
599616761362020096,-25
599616761369706368,-23
599616761377392768,-25
599616761385079040,-25
599616761392765312,-23
599616761400451584,-25
599616761408137856,-25
599616761415824128,-23
599616761423510400,-21
599616761431196672,-23
599616761438882944,-23
599616761446569344,-23
599616761454255616,-21
599616761461941888,-23
599616761469628160,-23
599616761477314432,-21
599616761485000704,-21
599616761492686976,-23
599616761500373248,-23
599616761508059520,-18
599616761515745920,-18
599616761523432192,-21
599616761531118464,-21
599616761538804736,-18
599616761546491008,-18
599616761554177280,-21
599616761561863552,-18
599616761569549824,-18
599616761577236096,-16
599616761584922368,-16
599616761592608768,-21
599616761600295040,-14
599616761607981312,7
599616761615667584,16
599616761623353856,0
599616761631040128,-7
599616761638726400,-2
599616761646412672,-18
599616761654098944,-37
599616761661785344,-32
599616761669471616,-23
599616761677157888,-28
599616761684844160,-28
599616761692530432,-23
599616761700216704,-23
599616761707902976,-25
599616761715589248,-28
599616761723275520,-70
599616761730961920,-156
599616761738648192,-142
599616761746334475,116
599616761754020992,465
599616761761707520,517
599616761769394176,128
599616761777080704,-280
599616761784767232,-283
599616761792453760,-126
599616761800140416,-74
599616761807826944,-9
599616761815513472,35
599616761823200128,-16
599616761830886656,-35
599616761838573184,-2
599616761846259712,-7
599616761853946368,-18
599616761861632896,-9
599616761869319424,-4
599616761877006080,-7
599616761884692608,-4
599616761892379136,-2
599616761900065664,-2
599616761907752320,2
599616761915438848,4
599616761923125376,7
599616761930812032,14
599616761938498560,18
599616761946185088,23
599616761953871616,28
599616761961558272,32
599616761969244800,39
599616761976931328,46
599616761984617984,56
599616761992304512,60
599616761999991040,65
599616762007677568,70
599616762015364224,72
599616762023050752,70
599616762030737280,65
599616762038423936,53
599616762046110464,35
599616762053796992,11
599616762061483520,-14
599616762069170176,-39
599616762076856704,-58
599616762084543232,-65
599616762092229888,-72
599616762099916416,-77
599616762107602944,-74
599616762115289472,-72
599616762122976128,-74
599616762130662656,-72
599616762138349184,-67
599616762146035840,-63
599616762153722368,-60
599616762161408896,-58
599616762169095424,-56
599616762176782080,-53
599616762184468608,-51
599616762192155136,-46
599616762199841792,-44
599616762207528320,-44
599616762215214848,-39
599616762222901376,-39
599616762230588032,-39
599616762238274560,-39
599616762245961088,-37
599616762253647744,-37
599616762261334272,-37
599616762269020800,-35
599616762276707328,-35
599616762284393984,-32
599616762292080512,-32
599616762299767040,-32
599616762307453682,-35
599616762315139968,-32
599616762322826240,-32
599616762330512384,-32
599616762338198656,-30
599616762345884800,-30
599616762353571072,-30
599616762361257216,-30
599616762368943488,-30
599616762376629760,-30
599616762384315904,-30
599616762392002176,-30
599616762399688320,-32
