599667494829435520,16
599667494837122688,30
599667494844809856,11
599667494852497152,2
599667494860184320,-7
599667494867871488,-18
599667494875558656,0
599667494883245824,-2
599667494890932992,-18
599667494898620288,4
599667494906307456,2
599667494913994624,-89
599667494921681792,-228
599667494929368960,-278
599667494937056256,21
599667494944743424,756
599667494952430592,1385
599667494960117760,1088
599667494967804928,143
599667494975492096,-254
599667494983179392,-63
599667494990866560,-42
599667494998553728,-70
599667495006240896,32
599667495013928064,23
599667495021615360,-18
599667495029302528,35
599667495036989696,49
599667495044676864,7
599667495052364032,21
599667495060051328,61
599667495067738496,40
599667495075425664,42
599667495083112832,103
599667495090800000,94
599667495098487168,47
599667495106174464,51
599667495113861632,87
599667495121548800,96
599667495129235968,91
599667495136923136,115
599667495144610432,127
599667495152297600,89
599667495159984768,91
599667495167671936,131
599667495175359104,113
599667495183046272,117
599667495190733568,160
599667495198420736,117
599667495206107904,98
599667495213795072,153
599667495221482240,127
599667495229169536,47
599667495236856704,35
599667495244543872,16
599667495252231040,-73
599667495259918208,-106
599667495267605376,-84
599667495275292672,-113
599667495282979840,-124
599667495290667008,-106
599667495298354176,-136
599667495306041344,-157
599667495313728640,-136
599667495321415808,-131
599667495329102976,-127
599667495336790144,-136
599667495344477312,-176
599667495352164608,-169
599667495359851776,-148
599667495367538944,-155
599667495375226112,-157
599667495382913358,-167
599667495390600960,-174
599667495398288512,-171
599667495405976192,-197
599667495413663744,-200
599667495421351424,-155
599667495429038976,-136
599667495436726656,-162
599667495444414208,-167
599667495452101888,-127
599667495459789440,-117
599667495467477120,-179
599667495475164672,-242
599667495482852224,-223
599667495490539904,-176
599667495498227456,-186
599667495505915136,-204
599667495513602688,-219
599667495521290368,-327
599667495528977920,-515
599667495536665600,-485
599667495544353152,77
599667495552040704,1003
599667495559728384,1446
599667495567415936,739
599667495575103616,-308
599667495582791168,-504
599667495590478848,-256
599667495598166400,-237
599667495605854080,-190
599667495613541632,-87
599667495621229312,-127
599667495628916864,-169
599667495636604416,-113
599667495644292096,-87
599667495651979648,-106
599667495659667328,-84
599667495667354880,-44
599667495675042560,-42
599667495682730112,-40
599667495690417792,-4
599667495698105344,7
599667495705792896,-2
599667495713480576,14
599667495721168128,40
599667495728855808,68
599667495736543360,101
599667495744231040,110
599667495751918592,98
599667495759606272,94
599667495767293824,106
599667495774981504,134
599667495782669056,160
599667495790356608,129
599667495798044288,68
599667495805731840,91
599667495813419520,157
599667495821107072,157
599667495828794752,101
599667495836482304,44
599667495844169984,11
599667495851857536,-28
599667495859545088,-65
599667495867232768,-80
599667495874920320,-87
599667495882608000,-98
599667495890295552,-117
599667495897983232,-110
599667495905670784,-63
599667495913358464,-61
599667495921046016,-94
599667495928733696,-73
599667495936421248,-47
599667495944108860,-75
599667495951796352,-80
599667495959483904,-42
599667495967171584,-42
599667495974859136,-58
599667495982546816,-35
599667495990234368,-30
599667495997922048,-56
599667496005609600,-40
599667496013297280,0
599667496020984832,14
599667496028672512,11
599667496036360064,9
599667496044047616,23
599667496051735296,23
599667496059422848,-9
599667496067110528,-4
599667496074798080,4
599667496082485760,-18
599667496090173312,-11
599667496097860992,7
599667496105548544,-11
599667496113236096,-25
599667496120923776,-73
599667496128611328,-259
599667496136299008,-391
599667496143986560,-51
599667496151674240,793
599667496159361792,1479
599667496167049472,1116
599667496174737024,14
599667496182424704,-442
599667496190112256,-207
599667496197799808,-131
599667496205487488,-129
599667496213175040,-21
599667496220862720,-9
599667496228550272,-51
599667496236237952,-44
599667496243925504,-23
599667496251613184,-7
599667496259300736,9
599667496266988288,21
599667496274675968,25
599667496282363520,28
599667496290051200,40
599667496297738752,49
599667496305426432,49
599667496313113984,68
599667496320801664,106
599667496328489216,115
599667496336176896,108
599667496343864448,122
599667496351552000,136
599667496359239680,143
599667496366927232,143
599667496374614912,162
599667496382302464,197
599667496389990144,181
599667496397677696,143
599667496405365376,171
599667496413052928,207
599667496420740480,190
599667496428428160,157
599667496436115712,110
599667496443803392,44
599667496451490944,-2
599667496459178624,-37
599667496466866176,-77
599667496474553856,-87
599667496482241408,-82
599667496489929088,-98
599667496497616640,-106
599667496505304362,-89
599667496512991872,-101
599667496520679424,-110
599667496528367104,-75
599667496536054656,-61
599667496543742336,-73
599667496551429888,-51
599667496559117568,-11
599667496566805120,4
599667496574492800,-14
599667496582180352,-2
599667496589868032,21
599667496597555584,0
599667496605243136,-4
599667496612930816,21
599667496620618368,21
599667496628306048,23
599667496635993600,37
599667496643681280,54
599667496651368832,70
599667496659056512,61
599667496666744064,21
599667496674431616,0
599667496682119296,4
599667496689806848,14
599667496697494528,18
599667496705182080,21
599667496712869760,14
599667496720557312,-2
599667496728244992,-73
599667496735932544,-202
599667496743620224,-233
599667496751307776,115
599667496758995328,949
599667496766683008,1606
599667496774370560,1060
599667496782058240,-96
599667496789745792,-395
599667496797433472,-120
599667496805121024,-87
599667496812808704,-56
599667496820496256,68
599667496828183808,54
599667496835871488,23
599667496843559040,94
599667496851246720,108
599667496858934272,25
599667496866621952,32
599667496874309504,120
599667496881997184,117
599667496889684736,84
599667496897372416,110
599667496905059968,129
599667496912747520,139
599667496920435200,167
599667496928122752,181
599667496935810432,167
599667496943497984,169
599667496951185664,207
599667496958873216,223
599667496966560896,214
599667496974248448,228
599667496981936000,249
599667496989623680,256
599667496997311232,263
599667497004998912,263
599667497012686464,254
599667497020374144,249
599667497028061696,259
599667497035749376,249
599667497043436928,131
599667497051124608,2
599667497058812160,2
599667497066499864,-4
599667497074187520,-68
599667497081875200,-91
599667497089562880,-108
599667497097250560,-122
599667497104938240,-127
599667497112625920,-122
599667497120313600,-101
599667497128001280,-98
599667497135688960,-108
599667497143376640,-73
599667497151064320,-37
599667497158752000,-101
599667497166439680,-127
599667497174127360,-30
599667497181815040,9
599667497189502720,-16
599667497197190400,25
599667497204878080,25
599667497212565760,-82
599667497220253440,-61
599667497227941120,73
599667497235628800,58
599667497243316480,9
599667497251004160,51
599667497258691840,63
599667497266379520,42
599667497274067200,32
599667497281754880,-16
599667497289442560,-37
599667497297130240,23
599667497304817920,40
599667497312505600,0
599667497320193280,4
599667497327880960,14
599667497335568640,-101
599667497343256320,-280
599667497350944000,-176
599667497358631680,449
599667497366319360,1267
599667497374007040,1536
599667497381694720,753
599667497389382400,-261
599667497397070080,-372
599667497404757760,-84
599667497412445440,-51
599667497420133120,4
599667497427820800,98
599667497435508480,101
599667497443196160,68
599667497450883840,14
599667497458571520,37
599667497466259200,127
599667497473946880,120
599667497481634560,89
599667497489322240,127
599667497497009920,150
599667497504697600,193
599667497512385280,207
599667497520072960,61
599667497527760640,44
599667497535448320,230
599667497543136000,259
599667497550823680,190
599667497558511360,223
599667497566199040,268
599667497573886720,263
599667497581574400,228
599667497589262080,228
599667497596949760,292
599667497604637440,313
599667497612325120,282
599667497620012800,301
599667497627700449,325
599667497635388032,299
599667497643075584,275
599667497650763136,122
599667497658450688,-58
599667497666138240,7
599667497673825792,56
599667497681513216,-73
599667497689200768,-113
599667497696888320,-84
599667497704575872,-108
599667497712263424,-101
599667497719950976,-58
599667497727638528,-70
599667497735326080,-82
599667497743013632,-80
599667497750701184,-84
599667497758388608,-47
599667497766076160,-23
599667497773763712,-37
599667497781451264,-7
599667497789138816,4
599667497796826368,-16
599667497804513920,2
599667497812201472,28
599667497819889024,16
599667497827576576,7
599667497835264128,7
599667497842951552,9
599667497850639104,49
599667497858326656,117
599667497866014208,65
599667497873701760,-18
599667497881389312,68
599667497889076864,101
599667497896764416,-2
599667497904451968,-7
599667497912139520,44
599667497919827072,37
599667497927514496,32
599667497935202048,61
599667497942889600,30
599667497950577152,-96
599667497958264704,-221
599667497965952256,-230
599667497973639808,167
599667497981327360,1069
599667497989014912,1677
599667497996702464,1071
599667498004389888,-84
599667498012077440,-362
599667498019764992,-91
599667498027452544,-115
599667498035140096,-61
599667498042827648,106
599667498050515200,28
599667498058202752,-25
599667498065890304,73
599667498073577856,89
599667498081265408,65
599667498088952832,89
599667498096640384,61
599667498104327936,42
599667498112015488,103
599667498119703040,150
599667498127390592,136
599667498135078144,91
599667498142765696,110
599667498150453248,186
599667498158140800,204
599667498165828224,188
599667498173515776,179
599667498181203328,169
599667498188890864,200
599667498196578432,240
599667498204265984,242
599667498211953664,245
599667498219641216,252
599667498227328896,252
599667498235016448,273
599667498242704128,292
599667498250391680,235
599667498258079360,169
599667498265766912,148
599667498273454592,94
599667498281142144,7
599667498288829696,-73
599667498296517376,-117
599667498304204928,-113
599667498311892608,-115
599667498319580160,-124
599667498327267840,-101
599667498334955392,-136
599667498342643072,-207
599667498350330624,-139
599667498358018176,-73
599667498365705856,-124
599667498373393408,-134
599667498381081088,-94
599667498388768640,-98
599667498396456320,-103
599667498404143872,-94
599667498411831552,-61
599667498419519104,-49
599667498427206784,-91
599667498434894336,-73
599667498442581888,9
599667498450269568,-32
599667498457957120,-117
599667498465644800,-73
599667498473332352,-32
599667498481020032,-70
599667498488707584,-73
599667498496395264,-35
599667498504082816,-2
599667498511770368,4
599667498519458048,-35
599667498527145600,-49
599667498534833280,-28
599667498542520832,-54
599667498550208512,-65
599667498557896064,-30
599667498565583744,-40
599667498573271296,-56
599667498580958976,-35
599667498588646528,-58
599667498596334080,-214
599667498604021760,-391
599667498611709312,-226
599667498619396992,527
599667498627084544,1432
599667498634772224,1488
599667498642459776,466
599667498650147456,-381
599667498657835008,-296
599667498665522560,-77
599667498673210240,-101
599667498680897792,-63
599667498688585472,-28
599667498696273024,-44
599667498703960704,-16
599667498711648256,4
599667498719335936,-11
599667498727023488,-4
599667498734711168,37
599667498742398720,35
599667498750086370,-14
599667498757773952,21
599667498765461504,91
599667498773149184,63
599667498780836736,30
599667498788524416,87
599667498796211968,131
599667498803899648,106
599667498811587200,75
599667498819274880,113
599667498826962432,157
599667498834650112,155
599667498842337664,179
599667498850025216,195
599667498857712896,188
599667498865400448,207
599667498873088128,226
599667498880775680,197
599667498888463360,160
599667498896150912,171
599667498903838592,146
599667498911526144,49
599667498919213696,-18
599667498926901376,-49
599667498934588928,-84
599667498942276608,-120
599667498949964160,-157
599667498957651840,-164
599667498965339392,-141
599667498973027072,-160
599667498980714624,-179
599667498988402304,-160
599667498996089856,-150
599667499003777408,-129
599667499011465088,-122
599667499019152640,-150
599667499026840320,-148
599667499034527872,-110
599667499042215552,-91
599667499049903104,-58
599667499057590784,-63
599667499065278336,-110
599667499072965888,-89
599667499080653568,-56
599667499088341120,-65
599667499096028800,-56
599667499103716352,-37
599667499111404032,-47
599667499119091584,-51
599667499126779264,-21
599667499134466816,-16
599667499142154496,-30
599667499149842048,-14
599667499157529600,-18
599667499165217280,-35
599667499172904832,-14
599667499180592512,23
599667499188280064,49
599667499195967744,54
599667499203655296,44
599667499211342976,16
599667499219030528,-35
599667499226718080,-23
599667499234405760,32
599667499242093312,14
599667499249780992,7
599667499257468544,37
599667499265156224,7
599667499272843776,-108
599667499280531456,-249
599667499288219008,-254
599667499295906688,160
599667499303594240,1031
599667499311281872,1611
599667499318969472,1024
599667499326657024,-30
599667499334344704,-273
599667499342032256,-44
599667499349719936,-32
599667499357407488,-21
599667499365095168,42
599667499372782720,35
599667499380470400,30
599667499388157952,35
599667499395845632,35
599667499403533184,61
599667499411220736,68
599667499418908416,54
599667499426595968,89
599667499434283648,120
599667499441971200,87
599667499449658880,87
599667499457346432,117
599667499465034112,91
599667499472721664,98
599667499480409216,167
599667499488096896,197
599667499495784448,176
599667499503472128,155
599667499511159680,195
599667499518847360,223
599667499526534912,204
599667499534222592,237
599667499541910144,254
599667499549597824,235
599667499557285376,256
599667499564972928,270
599667499572660608,268
599667499580348160,230
599667499588035840,136
599667499595723392,94
599667499603411072,68
599667499611098624,-16
599667499618786304,-75
599667499626473856,-75
599667499634161408,-68
599667499641849088,-108
599667499649536640,-143
599667499657224320,-108
599667499664911872,-73
599667499672599552,-82
599667499680287104,-103
599667499687974784,-94
599667499695662336,-51
599667499703350016,-28
599667499711037568,-63
599667499718725120,-103
599667499726412800,-77
599667499734100352,-28
599667499741788032,-21
599667499749475584,-32
599667499757163264,-51
599667499764850816,-30
599667499772538496,16
599667499780226048,4
599667499787913600,-7
599667499795601280,7
599667499803288832,-18
599667499810976512,-18
599667499818664064,35
599667499826351744,37
599667499834039296,-25
599667499841726976,-35
599667499849414528,11
599667499857102208,23
599667499864789760,9
599667499872477374,14
599667499880164864,4
599667499887852416,-21
599667499895540096,-11
599667499903227648,21
599667499910915328,42
599667499918602880,42
599667499926290560,40
599667499933978112,58
599667499941665792,61
599667499949353344,40
599667499957041024,28
599667499964728576,30
599667499972416128,44
599667499980103808,40
599667499987791360,11
599667499995479040,37
599667500003166592,54
599667500010854272,2
599667500018541824,-110
599667500026229504,-266
599667500033917056,-200
599667500041604608,376
599667500049292288,1234
599667500056979840,1578
599667500064667520,836
599667500072355072,-164
599667500080042752,-294
599667500087730304,-25
599667500095417984,-16
599667500103105536,-14
599667500110793216,56
599667500118480768,49
599667500126168320,42
599667500133856000,47
599667500141543552,37
599667500149231232,68
599667500156918784,89
599667500164606464,70
599667500172294016,77
599667500179981696,89
599667500187669248,87
599667500195356800,101
599667500203044480,122
599667500210732032,131
599667500218419712,127
599667500226107264,129
599667500233794944,176
599667500241482496,179
599667500249170176,141
599667500256857728,202
599667500264545408,263
599667500272232960,214
599667500279920512,200
599667500287608192,275
599667500295295744,294
599667500302983424,252
599667500310670976,237
599667500318358656,249
599667500326046208,259
599667500333733888,228
599667500341421440,157
599667500349108992,82
599667500356796672,18
599667500364484224,-32
599667500372171904,-58
599667500379859456,-56
599667500387547136,-84
599667500395234688,-115
599667500402922368,-77
599667500410609920,-44
599667500418297600,-89
599667500425985152,-124
599667500433672876,-80
599667500441360384,-58
599667500449047936,-73
599667500456735616,-63
599667500464423168,-70
599667500472110848,-77
599667500479798400,-61
599667500487486080,-44
599667500495173632,-37
599667500502861312,-28
599667500510548864,-28
599667500518236544,-18
599667500525924096,-14
599667500533611648,-30
599667500541299328,-9
599667500548986880,30
599667500556674560,30
599667500564362112,9
599667500572049792,-7
599667500579737344,4
599667500587425024,25
599667500595112576,21
599667500602800128,7
599667500610487808,-9
599667500618175360,-11
599667500625863040,37
599667500633550592,58
599667500641238272,23
599667500648925824,9
599667500656613504,18
599667500664301056,16
599667500671988736,2
599667500679676288,21
599667500687363840,58
599667500695051520,21
599667500702739072,-23
599667500710426752,32
599667500718114304,68
599667500725801984,37
599667500733489536,2
599667500741177216,-30
599667500748864768,-9
599667500756552320,37
599667500764240000,54
599667500771927552,77
599667500779615232,91
599667500787302784,49
599667500794990464,-7
599667500802678016,7
599667500810365696,42
599667500818053248,30
599667500825740928,30
599667500833428480,47
599667500841116032,16
599667500848803712,-21
599667500856491264,-30
599667500864178944,-143
599667500871866496,-313
599667500879554176,-113
599667500887241728,657
599667500894929408,1507
599667500902616960,1491
599667500910304512,393
599667500917992192,-424
599667500925679744,-254
599667500933367424,-40
599667500941054976,-80
599667500948742656,-16
599667500956430208,32
599667500964117888,16
599667500971805440,42
599667500979493120,63
599667500987180672,37
599667500994868378,35
599667501002555904,56
599667501010243456,61
599667501017931136,70
599667501025618688,94
599667501033306368,98
599667501040993920,80
599667501048681600,89
599667501056369152,146
599667501064056832,174
599667501071744384,108
599667501079432064,77
599667501087119616,174
599667501094807168,207
599667501102494848,164
599667501110182400,179
599667501117870080,216
599667501125557632,249
599667501133245312,230
599667501140932864,167
599667501148620544,209
599667501156308096,268
599667501163995648,216
599667501171683328,186
599667501179370880,214
599667501187058560,181
599667501194746112,49
599667501202433792,-51
599667501210121344,-44
599667501217809024,-44
599667501225496576,-98
599667501233184256,-131
599667501240871808,-124
599667501248559360,-89
599667501256247040,-73
599667501263934592,-143
599667501271622272,-155
599667501279309824,-75
599667501286997504,-120
599667501294685056,-169
599667501302372736,-101
599667501310060288,-75
599667501317747840,-103
599667501325435520,-94
599667501333123072,-58
599667501340810752,-80
599667501348498304,-113
599667501356185984,-65
599667501363873536,-49
599667501371561216,-82
599667501379248768,-56
599667501386936448,-21
599667501394624000,-47
599667501402311552,-65
599667501409999232,-54
599667501417686784,-54
599667501425374464,-47
599667501433062016,-32
599667501440749696,-49
599667501448437248,-61
599667501456124928,-51
599667501463812480,-47
599667501471500032,-37
599667501479187712,-35
599667501486875264,-56
599667501494562944,-42
599667501502250496,-9
599667501509938176,-49
599667501517625728,-75
599667501525313408,-30
599667501533000960,-42
599667501540688640,-63
599667501548376192,-14
599667501556063880,-18
599667501563751424,-49
599667501571438976,-37
599667501579126528,-51
599667501586814080,-63
599667501594501632,-35
599667501602189184,-18
599667501609876608,-9
599667501617564160,11
599667501625251712,21
599667501632939264,28
599667501640626816,42
599667501648314368,-7
599667501656001920,-75
599667501663689472,-25
599667501671377024,28
599667501679064576,-18
599667501686752000,-21
599667501694439552,16
599667501702127104,-11
599667501709814656,-129
599667501717502208,-325
599667501725189760,-294
599667501732877312,318
599667501740564864,1239
599667501748252416,1583
599667501755939968,789
599667501763627520,-230
599667501771314944,-334
599667501779002496,-61
599667501786690048,-61
599667501794377600,-42
599667501802065152,23
599667501809752704,-14
599667501817440256,-21
599667501825127808,30
599667501832815360,35
599667501840502912,11
599667501848190464,25
599667501855877888,56
599667501863565440,51
599667501871252992,42
599667501878940544,54
599667501886628096,70
599667501894315648,70
599667501902003200,61
599667501909690752,89
599667501917378304,134
599667501925065856,122
599667501932753280,110
599667501940440832,148
599667501948128384,171
599667501955815936,148
599667501963503488,136
599667501971191040,169
599667501978878592,188
599667501986566144,183
599667501994253696,188
599667502001941248,195
599667502009628800,195
599667502017316224,169
599667502025003776,124
599667502032691328,110
599667502040378880,94
599667502048066432,16
599667502055753984,-49
599667502063441536,-65
599667502071129088,-82
599667502078816640,-127
599667502086504192,-162
599667502094191616,-134
599667502101879168,-103
599667502109566720,-110
599667502117254295,-131
599667502124941568,-117
599667502132628864,-82
599667502140316032,-103
599667502148003328,-120
599667502155690624,-65
599667502163377920,-44
599667502171065088,-73
599667502178752384,-63
599667502186439680,-32
599667502194126976,-40
599667502201814144,-56
599667502209501440,-28
599667502217188736,2
599667502224875904,-7
599667502232563200,-7
599667502240250496,4
599667502247937792,-4
599667502255624960,-14
599667502263312256,-11
599667502270999552,-11
599667502278686848,-14
599667502286374016,0
599667502294061312,9
599667502301748608,-4
599667502309435776,0
599667502317123072,4
599667502324810368,-4
599667502332497664,18
599667502340184832,23
599667502347872128,-9
599667502355559424,4
599667502363246720,28
599667502370933888,4
599667502378621184,-9
599667502386308480,21
599667502393995648,42
599667502401682944,35
599667502409370240,37
599667502417057536,21
599667502424744704,-11
599667502432432000,14
599667502440119296,49
599667502447806592,37
599667502455493760,30
599667502463181056,37
599667502470868352,28
599667502478555648,23
599667502486242816,44
599667502493930112,42
599667502501617408,7
599667502509304576,11
599667502516991872,73
599667502524679168,91
599667502532366464,70
599667502540053632,63
599667502547740928,51
599667502555428224,28
599667502563115520,18
599667502570802688,23
599667502578489984,61
599667502586177280,82
599667502593864448,25
599667502601551744,9
599667502609239040,32
599667502616926336,-113
599667502624613504,-315
599667502632300800,-150
599667502639988096,548
599667502647675392,1397
599667502655362560,1547
599667502663049856,610
599667502670737152,-318
599667502678424366,-287
599667502686111872,-11
599667502693799424,-25
599667502701487104,-25
599667502709174656,25
599667502716862336,42
599667502724549888,51
599667502732237568,54
599667502739925120,42
599667502747612800,42
599667502755300352,61
599667502762988032,68
599667502770675584,82
599667502778363136,101
599667502786050816,82
599667502793738368,77
599667502801426048,113
599667502809113600,139
599667502816801280,139
599667502824488832,122
599667502832176512,131
599667502839864064,169
599667502847551616,183
599667502855239296,174
599667502862926848,181
599667502870614528,186
599667502878302080,200
599667502885989760,247
599667502893677312,242
599667502901364992,183
599667502909052544,190
599667502916740224,233
599667502924427776,219
599667502932115328,179
599667502939803008,141
599667502947490560,108
599667502955178240,51
599667502962865792,-11
599667502970553472,-49
599667502978241024,-63
599667502985928704,-98
599667502993616256,-131
599667503001303808,-101
599667503008991488,-75
599667503016679040,-103
599667503024366720,-122
599667503032054272,-110
599667503039741952,-77
599667503047429504,-56
599667503055117184,-101
599667503062804736,-113
599667503070492416,-42
599667503078179968,-28
599667503085867520,-65
599667503093555200,-70
599667503101242752,-47
599667503108930432,-18
599667503116617984,-4
599667503124305664,-18
599667503131993216,-23
599667503139680896,14
599667503147368448,23
599667503155056000,-37
599667503162743680,-47
599667503170431232,7
599667503178118912,0
599667503185806464,-11
599667503193494144,16
599667503201181696,23
599667503208869376,4
599667503216556928,-14
599667503224244608,-9
599667503231932160,21
599667503239619868,35
599667503247307392,2
599667503254994944,-11
599667503262682624,44
599667503270370176,16
599667503278057856,-44
599667503285745408,30
599667503293433088,56
599667503301120640,-4
599667503308808320,2
599667503316495872,32
599667503324183552,16
599667503331871104,11
599667503339558656,30
599667503347246336,32
599667503354933888,21
599667503362621568,23
599667503370309120,23
599667503377996800,11
599667503385684352,37
599667503393372032,56
599667503401059584,35
599667503408747136,9
599667503416434816,14
599667503424122368,58
599667503431810048,80
599667503439497600,70
599667503447185280,58
599667503454872832,23
599667503462560512,11
599667503470248064,51
599667503477935744,68
599667503485623296,18
599667503493310848,2
599667503500998528,51
599667503508686080,49
599667503516373760,-23
599667503524061312,-141
599667503531748992,-292
599667503539436544,-169
599667503547124224,525
599667503554811776,1401
599667503562499328,1526
599667503570187008,563
599667503577874560,-343
599667503585562240,-332
599667503593249792,-120
599667503600937472,-87
599667503608625024,28
599667503616312704,73
599667503624000256,18
599667503631687936,7
599667503639375488,25
599667503647063040,54
599667503654750720,61
599667503662438272,61
599667503670125952,89
599667503677813504,98
599667503685501184,61
599667503693188736,73
599667503700876416,131
599667503708563968,120
599667503716251520,103
599667503723939200,143
599667503731626752,150
599667503739314432,153
599667503747001984,160
599667503754689664,174
599667503762377216,202
599667503770064896,193
599667503777752448,171
599667503785440128,197
599667503793127680,221
599667503800815370,226
599667503808502912,230
599667503816190464,223
599667503823878144,228
599667503831565696,233
599667503839253376,169
599667503846940928,117
599667503854628608,110
599667503862316160,44
599667503870003840,-44
599667503877691392,-68
599667503885379072,-70
599667503893066624,-96
599667503900754176,-129
599667503908441856,-143
599667503916129408,-127
599667503923817088,-98
599667503931504640,-108
599667503939192320,-141
599667503946879872,-108
599667503954567552,-51
599667503962255104,-91
599667503969942656,-110
599667503977630336,-14
599667503985317888,-28
599667503993005568,-115
599667504000693120,-65
599667504008380800,-7
599667504016068352,-25
599667504023756032,-21
599667504031443584,-21
599667504039131264,-25
599667504046818816,4
599667504054506368,4
599667504062194048,-51
599667504069881600,-49
599667504077569280,7
599667504085256832,-14
599667504092944512,-42
599667504100632064,-7
599667504108319744,9
599667504116007296,-14
599667504123694848,-18
599667504131382528,-7
599667504139070080,-11
599667504146757760,-21
599667504154445312,-16
599667504162132992,-14
599667504169820544,-11
599667504177508224,2
599667504185195776,0
599667504192883456,-9
599667504200571008,2
599667504208258560,7
599667504215946240,-2
599667504223633792,-9
599667504231321472,-2
599667504239009024,25
599667504246696704,42
599667504254384256,14
599667504262071936,-14
599667504269759488,-4
599667504277447040,25
599667504285134720,25
599667504292822272,-7
599667504300509952,-4
599667504308197504,21
599667504315885184,35
599667504323572736,47
599667504331260416,77
599667504338947968,84
599667504346635648,42
599667504354323200,2
599667504362010872,32
599667504369698432,51
599667504377385984,4
599667504385073664,-2
599667504392761216,49
599667504400448896,49
599667504408136448,-7
599667504415824128,-94
599667504423511680,-237
599667504431199360,-245
599667504438886912,216
599667504446574464,1060
599667504454262144,1597
599667504461949696,1043
599667504469637376,-91
599667504477324928,-459
599667504485012608,-195
599667504492700160,-106
599667504500387840,-54
599667504508075392,44
599667504515763072,21
599667504523450624,7
599667504531138176,54
599667504538825856,44
599667504546513408,32
599667504554201088,77
599667504561888640,84
599667504569576320,56
599667504577263872,77
599667504584951552,98
599667504592639104,87
599667504600326656,94
599667504608014336,106
599667504615701888,106
599667504623389568,124
599667504631077120,164
599667504638764800,174
599667504646452352,143
599667504654140032,146
599667504661827584,209
599667504669515264,228
599667504677202816,200
599667504684890368,207
599667504692578048,233
599667504700265600,214
599667504707953280,190
599667504715640832,212
599667504723328512,221
599667504731016064,195
599667504738703744,162
599667504746391296,120
599667504754078848,49
599667504761766528,-23
599667504769454080,-61
599667504777141760,-73
599667504784829312,-96
599667504792516992,-131
599667504800204544,-134
599667504807892224,-136
599667504815579776,-150
599667504823267456,-117
599667504830955008,-82
599667504838642560,-122
599667504846330240,-143
599667504854017792,-101
599667504861705472,-89
599667504869393024,-94
599667504877080704,-54
599667504884768256,-49
599667504892455936,-73
599667504900143488,-47
599667504907831040,-18
599667504915518720,-32
599667504923206370,-30
599667504930893952,-14
599667504938581504,-28
599667504946269184,-49
599667504953956736,-32
599667504961644416,-2
599667504969331968,-18
599667504977019648,-37
599667504984707200,-7
599667504992394880,-9
599667505000082432,-40
599667505007770112,-23
599667505015457664,-7
599667505023145216,-23
599667505030832896,-18
599667505038520448,2
599667505046208128,0
599667505053895680,-2
599667505061583360,-2
599667505069270912,-18
599667505076958592,-4
599667505084646144,25
599667505092333696,35
599667505100021376,7
599667505107708928,-32
599667505115396608,14
599667505123084160,56
599667505130771840,18
599667505138459392,4
599667505146147072,9
599667505153834624,7
599667505161522304,18
599667505169209856,16
599667505176897408,2
599667505184585088,25
599667505192272640,35
599667505199960320,11
599667505207647872,11
599667505215335552,44
599667505223023104,63
599667505230710784,68
599667505238398336,73
599667505246085888,51
599667505253773568,35
599667505261461120,40
599667505269148800,37
599667505276836352,35
599667505284524032,40
599667505292211584,37
599667505299899264,40
599667505307586816,42
599667505315274496,14
599667505322962048,-89
599667505330649600,-242
599667505338337280,-219
599667505346024832,287
599667505353712512,1177
599667505361400064,1637
599667505369087744,958
599667505376775296,-153
599667505384462976,-447
599667505392150528,-167
599667505399838080,-73
599667505407525760,-37
599667505415213312,40
599667505422900992,30
599667505430588544,25
599667505438276224,61
599667505445963776,58
599667505453651456,32
599667505461339008,40
599667505469026688,84
599667505476714240,96
599667505484401876,75
599667505492089472,82
599667505499777024,103
599667505507464704,98
599667505515152256,106
599667505522839936,122
599667505530527488,117
599667505538215168,131
599667505545902720,157
599667505553590400,171
599667505561277952,174
599667505568965632,197
599667505576653184,214
599667505584340736,186
599667505592028416,202
599667505599715968,242
599667505607403648,233
599667505615091200,214
599667505622778880,219
599667505630466432,214
599667505638154112,186
599667505645841664,162
599667505653529216,129
599667505661216896,49
599667505668904448,-16
599667505676592128,-51
599667505684279680,-96
599667505691967360,-127
599667505699654912,-141
599667505707342592,-150
599667505715030144,-131
599667505722717824,-139
599667505730405376,-153
599667505738092928,-131
599667505745780608,-120
599667505753468160,-113
599667505761155840,-103
599667505768843392,-134
599667505776531072,-127
599667505784218624,-65
599667505791906304,-56
599667505799593856,-65
599667505807281408,-40
599667505814969088,-30
599667505822656640,-56
599667505830344320,-58
599667505838031872,-30
599667505845719552,-9
599667505853407104,-18
599667505861094784,-30
599667505868782336,-35
599667505876470016,-18
599667505884157568,-18
599667505891845120,-51
599667505899532800,-28
599667505907220352,-2
599667505914908032,-37
599667505922595584,-40
599667505930283264,-14
599667505937970816,-23
599667505945658496,-28
599667505953346048,-11
599667505961033600,-11
599667505968721280,-32
599667505976408832,-28
599667505984096512,-14
599667505991784064,-9
599667505999471744,0
599667506007159296,-18
599667506014846976,-58
599667506022534528,-25
599667506030222208,4
599667506037909760,-35
599667506045597378,-51
599667506053284992,-11
599667506060972544,11
599667506068660224,9
599667506076347776,32
599667506084035456,47
599667506091723008,23
599667506099410688,0
599667506107098240,-32
599667506114785920,-35
599667506122473472,4
599667506130161152,11
599667506137848704,0
599667506145536256,7
599667506153223936,-7
599667506160911488,-68
599667506168599168,-223
599667506176286720,-353
599667506183974400,-70
599667506191661952,758
599667506199349632,1557
599667506207037184,1385
599667506214724736,270
599667506222412416,-468
599667506230099968,-322
599667506237787648,-120
599667506245475200,-115
599667506253162880,-37
599667506260850432,4
599667506268538112,-23
599667506276225664,-9
599667506283913344,-11
599667506291600896,-35
599667506299288448,-4
599667506306976128,14
599667506314663680,9
599667506322351360,28
599667506330038912,25
599667506337726592,7
599667506345414144,32
599667506353101824,56
599667506360789376,65
599667506368476928,70
599667506376164608,70
599667506383852160,101
599667506391539840,117
599667506399227392,101
599667506406915072,131
599667506414602624,164
599667506422290304,155
599667506429977856,155
599667506437665536,164
599667506445353088,181
599667506453040640,209
599667506460728320,179
599667506468415872,136
599667506476103552,157
599667506483791104,148
599667506491478784,63
599667506499166336,-7
599667506506854016,-61
599667506514541568,-103
599667506522229120,-129
599667506529916800,-200
599667506537604352,-247
599667506545292032,-195
599667506552979584,-176
599667506560667264,-221
599667506568354816,-214
599667506576042496,-179
599667506583730048,-183
599667506591417728,-176
599667506599105280,-139
599667506606792880,-139
599667506614480384,-160
599667506622167936,-127
599667506629855616,-98
599667506637543168,-106
599667506645230848,-98
599667506652918400,-96
599667506660606080,-80
599667506668293632,-42
599667506675981312,-58
599667506683668864,-70
599667506691356544,-42
599667506699044096,-37
599667506706731648,-42
599667506714419328,-49
599667506722106880,-58
599667506729794560,-25
599667506737482112,-9
599667506745169792,-40
599667506752857344,-51
599667506760545024,-32
599667506768232576,-37
599667506775920128,-49
599667506783607808,-28
599667506791295360,-11
599667506798983040,-18
599667506806670592,-21
599667506814358272,-30
599667506822045824,-32
599667506829733504,-4
599667506837421056,9
599667506845108736,0
599667506852796288,32
599667506860483840,56
599667506868171520,4
599667506875859072,-21
599667506883546752,14
599667506891234304,7
599667506898921984,-18
599667506906609536,4
599667506914297216,30
599667506921984768,7
599667506929672320,-16
599667506937360000,-32
599667506945047552,-155
599667506952735232,-339
599667506960422784,-202
599667506968110464,508
599667506975798016,1401
599667506983485696,1545
599667506991173248,596
599667506998860928,-322
599667507006548480,-315
599667507014236032,-82
599667507021923712,-77
599667507029611264,-16
599667507037298944,49
599667507044986496,16
599667507052674176,-7
599667507060361728,30
599667507068049408,63
599667507075736960,18
599667507083424512,-2
599667507091112192,77
599667507098799744,94
599667507106487424,44
599667507114174976,70
599667507121862656,113
599667507129550208,98
599667507137237888,91
599667507144925440,115
599667507152613120,122
599667507160300672,129
599667507167988382,155
599667507175675904,169
599667507183363456,162
599667507191051136,167
599667507198738688,214
599667507206426368,235
599667507214113920,202
599667507221801600,204
599667507229489152,245
599667507237176832,240
599667507244864384,228
599667507252552064,235
599667507260239616,195
599667507267927168,139
599667507275614848,73
599667507283302400,-32
599667507290990080,-82
599667507298677632,-63
599667507306365312,-96
599667507314052864,-131
599667507321740544,-115
599667507329428096,-120
599667507337115648,-134
599667507344803328,-120
599667507352490880,-115
599667507360178560,-115
599667507367866112,-94
599667507375553792,-75
599667507383241344,-80
599667507390929024,-73
599667507398616576,-44
599667507406304256,-42
599667507413991808,-68
599667507421679360,-54
599667507429367040,2
599667507437054592,14
599667507444742272,-30
599667507452429824,-32
599667507460117504,16
599667507467805056,4
599667507475492736,-32
599667507483180288,11
599667507490867840,18
599667507498555520,-42
599667507506243072,-11
599667507513930752,21
599667507521618304,4
599667507529305984,23
599667507536993536,25
599667507544681216,2
599667507552368768,21
599667507560056448,44
599667507567744000,21
599667507575431552,-7
599667507583119232,-4
599667507590806784,35
599667507598494464,84
599667507606182016,87
599667507613869696,65
599667507621557248,63
599667507629244928,40
599667507636932480,30
599667507644620032,49
599667507652307712,42
599667507659995264,25
599667507667682944,40
599667507675370496,65
599667507683058176,63
599667507690745728,42
599667507698433408,14
599667507706120960,-110
599667507713808640,-268
599667507721496192,-94
599667507729183884,588
599667507736871424,1420
599667507744558976,1533
599667507752246656,548
599667507759934208,-351
599667507767621888,-256
599667507775309440,4
599667507782997120,-28
599667507790684672,18
599667507798372352,80
599667507806059904,47
599667507813747456,47
599667507821435136,65
599667507829122688,63
599667507836810368,80
599667507844497920,110
599667507852185600,98
599667507859873152,68
599667507867560832,103
599667507875248384,148
599667507882936064,136
599667507890623616,122
599667507898311168,141
599667507905998848,157
599667507913686400,153
599667507921374080,160
599667507929061632,183
599667507936749312,202
599667507944436864,214
599667507952124544,214
599667507959812096,237
599667507967499648,252
599667507975187328,235
599667507982874880,249
599667507990562560,280
599667507998250112,268
599667508005937792,242
599667508013625344,226
599667508021313024,204
599667508029000576,160
599667508036688256,68
599667508044375808,-14
599667508052063360,-30
599667508059751040,-51
599667508067438592,-108
599667508075126272,-122
599667508082813824,-108
599667508090501504,-117
599667508098189056,-136
599667508105876736,-120
599667508113564288,-80
599667508121251840,-75
599667508128939520,-98
599667508136627072,-89
599667508144314752,-68
599667508152002304,-82
599667508159689984,-77
599667508167377536,-40
599667508175065216,-44
599667508182752768,-73
599667508190440448,-35
599667508198128000,23
599667508205815552,4
599667508213503232,-44
599667508221190784,-21
599667508228878464,23
599667508236566016,-4
599667508244253696,-37
599667508251941248,-11
599667508259628928,-4
599667508267316480,-18
599667508275004032,-2
599667508282691712,16
599667508290379382,28
599667508298066944,7
599667508305754496,-32
599667508313442048,-2
599667508321129600,28
599667508328817152,-16
599667508336504704,-21
599667508344192128,18
599667508351879680,37
599667508359567232,42
599667508367254784,54
599667508374942336,49
599667508382629888,30
599667508390317440,25
599667508398004992,30
599667508405692544,14
599667508413380096,7
599667508421067520,23
599667508428755072,40
599667508436442624,44
599667508444130176,16
599667508451817728,-42
599667508459505280,-148
599667508467192832,-261
599667508474880384,-63
599667508482567936,685
599667508490255488,1510
599667508497943040,1401
599667508505630464,308
599667508513318016,-421
599667508521005568,-259
599667508528693120,-51
599667508536380672,-49
599667508544068224,30
599667508551755776,70
599667508559443328,42
599667508567130880,51
599667508574818432,61
599667508582505984,49
599667508590193408,56
599667508597880960,82
599667508605568512,91
599667508613256064,89
599667508620943616,94
599667508628631168,103
599667508636318720,110
599667508644006272,127
599667508651693824,148
599667508659381376,155
599667508667068800,143
599667508674756352,143
599667508682443904,155
599667508690131456,174
599667508697819008,207
599667508705506560,221
599667508713194112,219
599667508720881664,228
599667508728569216,233
599667508736256768,233
599667508743944320,263
599667508751631744,270
599667508759319296,209
599667508767006848,197
599667508774694400,214
599667508782381952,120
599667508790069504,9
599667508797757056,-14
599667508805444608,-44
599667508813132160,-91
599667508820819712,-106
599667508828507264,-134
599667508836194688,-153
599667508843882240,-120
599667508851569801,-106
599667508859257344,-122
599667508866944896,-115
599667508874632448,-110
599667508882320000,-113
599667508890007552,-94
599667508897695104,-77
599667508905382528,-73
599667508913070080,-65
599667508920757632,-44
599667508928445184,-18
599667508936132736,-30
599667508943820288,-61
599667508951507840,-44
599667508959195392,-16
599667508966882944,-4
599667508974570496,14
599667508982257920,-2
599667508989945472,-30
599667508997633024,-7
599667509005320576,21
599667509013008128,7
599667509020695680,-28
599667509028383232,-21
599667509036070784,18
599667509043758336,14
599667509051445888,-16
599667509059133440,-14
599667509066820864,4
599667509074508416,11
599667509082195968,7
599667509089883520,-2
599667509097571072,2
599667509105258624,7
599667509112946176,2
599667509120633728,16
599667509128321280,37
599667509136008832,54
599667509143696384,70
599667509151383808,54
599667509159071360,18
599667509166758912,16
599667509174446464,30
599667509182134016,23
599667509189821568,0
599667509197509120,11
599667509205196672,54
599667509212884224,63
599667509220571776,-2
599667509228259200,-89
599667509235946752,-195
599667509243634304,-249
599667509251321856,80
599667509259009408,907
599667509266696960,1585
599667509274384512,1218
599667509282072064,103
599667509289759616,-407
599667509297447168,-193
599667509305134720,-70
599667509312822144,-42
599667509320509696,42
599667509328197248,25
599667509335884800,16
599667509343572352,63
599667509351259904,51
599667509358947456,40
599667509366635008,75
599667509374322560,87
599667509382010112,77
599667509389697536,75
599667509397385088,80
599667509405072640,94
599667509412760216,113
599667509420448000,127
599667509428135808,136
599667509435823488,162
599667509443511296,150
599667509451198976,94
599667509458886784,146
599667509466574464,226
599667509474262272,197
599667509481949952,174
599667509489637760,197
599667509497325440,207
599667509505013248,223
599667509512700928,242
599667509520388736,237
599667509528076544,237
599667509535764224,237
599667509543452032,188
599667509551139712,124
599667509558827520,103
599667509566515200,49
599667509574203008,-40
599667509581890688,-80
599667509589578496,-94
599667509597266176,-113
599667509604953984,-122
599667509612641664,-131
599667509620329472,-139
599667509628017280,-131
599667509635704960,-127
599667509643392768,-148
599667509651080448,-153
599667509658768256,-110
599667509666455936,-91
599667509674143744,-94
599667509681831424,-80
599667509689519232,-73
599667509697206912,-87
599667509704894720,-77
599667509712582400,-54
599667509720270208,-49
599667509727958016,-54
599667509735645696,-56
599667509743333504,-51
599667509751021184,-35
599667509758708992,-21
599667509766396672,-37
599667509774084480,-47
599667509781772160,-28
599667509789459968,-28
599667509797147648,-56
599667509804835456,-56
599667509812523136,-40
599667509820210944,-40
599667509827898752,-32
599667509835586432,-32
599667509843274240,-47
599667509850961920,-35
599667509858649728,-21
599667509866337408,-44
599667509874025216,-49
599667509881712896,-37
599667509889400704,-23
599667509897088384,2
599667509904776192,11
599667509912463872,4
599667509920151680,18
599667509927839488,16
599667509935527168,-14
599667509943214976,-11
599667509950902656,-4
599667509958590464,-28
599667509966278144,-25
599667509973965892,14
599667509981653248,0
599667509989340544,-56
599667509997027968,-56
599667510004715264,-103
599667510012402560,-292
599667510020089856,-308
599667510027777280,256
599667510035464576,1187
599667510043151872,1594
599667510050839168,845
599667510058526592,-233
599667510066213888,-442
599667510073901184,-183
599667510081588608,-148
599667510089275904,-91
599667510096963200,7
599667510104650496,-16
599667510112337920,-28
599667510120025216,-2
599667510127712512,-9
599667510135399808,-2
599667510143087232,18
599667510150774528,7
599667510158461824,18
599667510166149248,35
599667510173836544,11
599667510181523840,28
599667510189211136,73
599667510196898560,77
599667510204585856,80
599667510212273152,89
599667510219960448,103
599667510227647872,120
599667510235335168,110
599667510243022464,117
599667510250709888,146
599667510258397184,160
599667510266084480,174
599667510273771776,162
599667510281459200,157
599667510289146496,190
599667510296833792,216
599667510304521088,197
599667510312208512,155
599667510319895808,127
599667510327583104,80
599667510335270528,-4
599667510342957824,-56
599667510350645120,-84
599667510358332416,-139
599667510366019840,-171
599667510373707136,-174
599667510381394432,-202
599667510389081728,-212
599667510396769152,-179
599667510404456448,-183
599667510412143744,-204
599667510419831168,-179
599667510427518464,-164
599667510435205760,-169
599667510442893056,-146
599667510450580480,-124
599667510458267776,-139
599667510465955072,-136
599667510473642368,-96
599667510481329792,-96
599667510489017088,-103
599667510496704384,-82
599667510504391808,-70
599667510512079104,-63
599667510519766400,-61
599667510527453696,-68
599667510535141046,-70
599667510542828544,-63
599667510550516096,-56
599667510558203648,-58
599667510565891200,-49
599667510573578752,-30
599667510581266304,-61
599667510588953728,-80
599667510596641280,-40
599667510604328832,-35
599667510612016384,-58
599667510619703936,-37
599667510627391488,-9
599667510635079040,-30
599667510642766592,-47
599667510650454144,-42
599667510658141696,-40
599667510665829120,-11
599667510673516672,18
599667510681204224,18
599667510688891776,18
599667510696579328,4
599667510704266880,-18
599667510711954432,-14
599667510719641984,-4
599667510727329536,-21
599667510735017088,-21
599667510742704640,4
599667510750392064,23
599667510758079616,0
599667510765767168,-28
599667510773454720,-63
599667510781142272,-219
599667510788829824,-341
599667510796517376,4
599667510804204928,845
599667510811892480,1545
599667510819580032,1274
599667510827267584,174
599667510834955008,-433
599667510842642560,-204
599667510850330112,-30
599667510858017664,-63
599667510865705216,-14
599667510873392768,16
599667510881080320,16
599667510888767872,40
599667510896455424,25
599667510904142976,11
599667510911830400,47
599667510919517952,58
599667510927205504,37
599667510934893056,61
599667510942580608,94
599667510950268160,80
599667510957955712,87
599667510965643264,117
599667510973330816,94
599667510981018368,87
599667510988705920,139
599667510996393344,157
599667511004080896,148
599667511011768448,157
599667511019456000,155
599667511027143552,174
599667511034831104,223
599667511042518656,216
599667511050206208,193
599667511057893760,223
599667511065581312,240
599667511073268736,219
599667511080956288,214
599667511088643840,207
599667511096331461,162
599667511104019072,80
599667511111706624,18
599667511119394176,-7
599667511127081728,-61
599667511134769280,-117
599667511142456832,-108
599667511150144256,-96
599667511157831808,-120
599667511165519360,-122
599667511173206912,-117
599667511180894464,-108
599667511188582016,-89
599667511196269568,-94
599667511203957120,-91
599667511211644672,-61
599667511219332224,-77
599667511227019648,-94
599667511234707200,-40
599667511242394752,-21
599667511250082304,-63
599667511257769856,-37
599667511265457408,-7
599667511273144960,-30
599667511280832512,-14
599667511288520064,16
599667511296207616,0
599667511303895168,-4
599667511311582592,14
599667511319270144,7
599667511326957696,-11
599667511334645248,4
599667511342332800,18
599667511350020352,2
599667511357707904,0
599667511365395456,11
599667511373083008,23
599667511380770560,35
599667511388458112,9
599667511396145536,0
599667511403833088,35
599667511411520640,40
599667511419208192,16
599667511426895744,23
599667511434583296,30
599667511442270848,25
599667511449958400,23
599667511457645952,21
599667511465333504,40
599667511473020928,47
599667511480708480,23
599667511488396032,42
599667511496083584,61
599667511503771136,54
599667511511458688,77
599667511519146240,87
599667511526833792,54
599667511534521344,63
599667511542208896,73
599667511549896448,44
599667511557583872,35
599667511565271424,42
599667511572958976,49
599667511580646528,54
599667511588334080,42
599667511596021632,28
599667511603709184,-54
599667511611396736,-233
599667511619084288,-230
599667511626771840,310
599667511634459264,1227
599667511642146816,1660
599667511649834368,935
599667511657521876,-167
599667511665209472,-374
599667511672897024,-56
599667511680584576,-14
599667511688272128,-9
599667511695959680,82
599667511703647232,58
599667511711334656,23
599667511719022208,65
599667511726709760,82
599667511734397312,73
599667511742084864,80
599667511749772416,80
599667511757459968,91
599667511765147520,94
599667511772835072,89
599667511780522624,115
599667511788210048,131
599667511795897600,139
599667511803585152,148
599667511811272704,141
599667511818960256,160
599667511826647808,188
599667511834335360,197
599667511842022912,171
599667511849710464,167
599667511857398016,242
599667511865085568,259
599667511872772992,200
599667511880460544,226
599667511888148096,270
599667511895835648,235
599667511903523200,216
599667511911210752,237
599667511918898304,221
599667511926585856,171
599667511934273408,106
599667511941960960,25
599667511949648512,-9
599667511957335936,-16
599667511965023488,-63
599667511972711040,-98
599667511980398592,-75
599667511988086144,-73
599667511995773696,-96
599667512003461248,-68
599667512011148800,-84
599667512018836352,-136
599667512026523904,-75
599667512034211328,-28
599667512041898880,-73
599667512049586432,-70
599667512057273984,-44
599667512064961536,-51
599667512072649088,-51
599667512080336640,-35
599667512088024192,-14
599667512095711744,-25
599667512103399296,-35
599667512111086848,-7
599667512118774272,0
599667512126461824,-14
599667512134149376,7
599667512141836928,21
599667512149524480,-14
599667512157212032,-16
599667512164899584,28
599667512172587136,11
599667512180274688,-21
599667512187962240,9
599667512195649792,23
599667512203337216,-4
599667512211024768,-14
599667512218712295,2
599667512226399872,25
599667512234087424,30
599667512241774976,11
599667512249462528,7
599667512257150080,18
599667512264837632,18
599667512272525056,16
599667512280212608,9
599667512287900160,9
599667512295587712,40
599667512303275264,58
599667512310962816,32
599667512318650368,0
599667512326337920,23
599667512334025472,56
599667512341713024,28
599667512349400448,7
599667512357088000,30
599667512364775552,35
599667512372463104,32
599667512380150656,42
599667512387838208,37
599667512395525760,28
599667512403213312,40
599667512410900864,47
599667512418588416,21
599667512426275968,11
599667512433963392,49
599667512441650944,75
599667512449338496,32
599667512457026048,2
599667512464713600,54
599667512472401152,75
599667512480088704,49
599667512487776256,61
599667512495463808,89
599667512503151360,87
599667512510838912,54
599667512518526336,37
599667512526213888,35
599667512533901440,23
599667512541588992,28
599667512549276544,49
599667512556964096,51
599667512564651648,30
599667512572339200,25
599667512580026752,9
599667512587714304,-120
599667512595401728,-287
599667512603089280,-129
599667512610776832,584
599667512618464384,1439
599667512626151936,1510
599667512633839488,553
599667512641527040,-301
599667512649214592,-313
599667512656902144,-120
599667512664589696,-94
599667512672277248,-9
599667512679964672,70
599667512687652224,47
599667512695339776,4
599667512703027328,28
599667512710714880,61
599667512718402432,65
599667512726089984,68
599667512733777536,65
599667512741465088,68
599667512749152640,91
599667512756840064,103
599667512764527616,87
599667512772215168,106
599667512779902710,143
599667512787590272,127
599667512795277824,127
599667512802965376,162
599667512810652928,155
599667512818340480,153
599667512826028032,188
599667512833715456,188
599667512841403008,160
599667512849090560,188
599667512856778112,228
599667512864465664,216
599667512872153216,212
599667512879840768,223
599667512887528320,212
599667512895215872,190
599667512902903424,179
599667512910590848,162
599667512918278400,117
599667512925965952,56
599667512933653504,-9
599667512941341056,-49
599667512949028608,-44
599667512956716160,-77
599667512964403712,-148
599667512972091264,-127
599667512979778816,-82
599667512987466368,-113
599667512995153792,-129
599667513002841344,-108
599667513010528896,-96
599667513018216448,-94
599667513025904000,-103
599667513033591552,-101
599667513041279104,-70
599667513048966656,-65
599667513056654208,-70
599667513064341760,-54
599667513072029312,-51
599667513079716736,-54
599667513087404288,-23
599667513095091840,0
599667513102779392,-11
599667513110466944,-44
599667513118154496,-51
599667513125842048,-7
599667513133529600,0
599667513141217152,-32
599667513148904704,-21
599667513156592128,-4
599667513164279680,-21
599667513171967232,-40
599667513179654784,-23
599667513187342336,0
599667513195029888,-11
599667513202717440,-28
599667513210404992,-11
599667513218092544,4
599667513225780096,-23
599667513233467648,-47
599667513241155072,-14
599667513248842624,9
599667513256530176,4
599667513264217728,-7
599667513271905280,-28
599667513279592832,-11
599667513287280384,18
599667513294967936,9
599667513302655488,-9
599667513310343040,-18
599667513318030464,-11
599667513325718016,11
599667513333405568,23
599667513341093125,16
599667513348780672,7
599667513356468224,2
599667513364155776,9
599667513371843328,16
599667513379530880,23
599667513387218432,11
599667513394905856,-14
599667513402593408,16
599667513410280960,54
599667513417968512,18
599667513425656064,-11
599667513433343616,23
599667513441031168,42
599667513448718720,28
599667513456406272,30
599667513464093824,44
599667513471781248,32
599667513479468800,-2
599667513487156352,7
599667513494843904,49
599667513502531456,25
599667513510219008,-4
599667513517906560,32
599667513525594112,51
599667513533281664,47
599667513540969216,75
599667513548656768,70
599667513556344192,32
599667513564031744,47
599667513571719296,42
599667513579406848,-2
599667513587094400,11
599667513594781952,30
599667513602469504,21
599667513610157056,32
599667513617844608,32
599667513625532160,-16
599667513633219712,-157
599667513640907136,-318
599667513648594688,-139
599667513656282240,591
599667513663969792,1437
599667513671657344,1566
599667513679344896,636
599667513687032448,-332
599667513694720000,-381
599667513702407552,-124
599667513710095104,-89
599667513717782528,-21
599667513725470080,37
599667513733157632,2
599667513740845184,21
599667513748532736,54
599667513756220288,30
599667513763907840,35
599667513771595392,70
599667513779282944,65
599667513786970496,54
599667513794658048,70
599667513802345472,91
599667513810033024,108
599667513817720576,108
599667513825408128,87
599667513833095680,98
599667513840783232,148
599667513848470784,157
599667513856158336,134
599667513863845888,146
599667513871533440,174
599667513879220864,181
599667513886908416,181
599667513894595968,193
599667513902283540,197
599667513909971072,204
599667513917658624,219
599667513925346176,221
599667513933033728,214
599667513940721280,204
599667513948408832,179
599667513956096256,146
599667513963783808,108
599667513971471360,47
599667513979158912,-21
599667513986846464,-54
599667513994534016,-68
599667514002221568,-106
599667514009909120,-108
599667514017596672,-77
599667514025284224,-115
599667514032971648,-171
599667514040659200,-124
599667514048346752,-82
599667514056034304,-110
599667514063721856,-101
599667514071409408,-75
599667514079096960,-89
599667514086784512,-87
599667514094472064,-54
599667514102159616,-49
599667514109847168,-56
599667514117534592,-40
599667514125222144,-40
599667514132909696,-35
599667514140597248,4
599667514148284800,-21
599667514155972352,-56
599667514163659904,25
599667514171347456,40
599667514179035008,-37
599667514186722560,-28
599667514194410112,4
599667514202097536,-16
599667514209785088,-16
599667514217472640,0
599667514225160192,-7
599667514232847744,-18
599667514240535296,-14
599667514248222848,-2
599667514255910400,21
599667514263597952,11
599667514271285504,-30
599667514278972928,-11
599667514286660480,28
599667514294348032,16
599667514302035584,-2
599667514309723136,2
599667514317410688,2
599667514325098240,16
599667514332785792,28
599667514340473344,16
599667514348160896,9
599667514355848448,21
599667514363535872,23
599667514371223424,11
599667514378910976,11
599667514386598528,28
599667514394286080,51
599667514401973632,40
599667514409661184,2
599667514417348736,16
599667514425036288,42
599667514432723840,35
599667514440411264,40
599667514448098816,40
599667514455786368,23
599667514463473955,25
599667514471161472,47
599667514478849024,73
599667514486536576,73
599667514494224128,70
599667514501911680,73
599667514509599232,37
599667514517286656,18
599667514524974208,54
599667514532661760,49
599667514540349312,25
599667514548036864,47
599667514555724416,63
599667514563411968,54
599667514571099520,21
599667514578787072,-61
599667514586474624,-209
599667514594162048,-245
599667514601849600,162
599667514609537152,1020
599667514617224704,1656
599667514624912256,1203
599667514632599808,61
599667514640287360,-402
599667514647974912,-174
599667514655662464,-96
599667514663350016,-80
599667514671037568,44
599667514678724992,51
599667514686412544,7
599667514694100096,44
599667514701787648,75
599667514709475200,54
599667514717162752,49
599667514724850304,101
599667514732537856,110
599667514740225408,49
599667514747912960,70
599667514755600512,141
599667514763287936,141
599667514770975488,115
599667514778663040,115
599667514786350592,120
599667514794038144,124
599667514801725696,139
599667514809413248,150
599667514817100800,162
599667514824788352,186
599667514832475904,216
599667514840163328,221
599667514847850880,188
599667514855538432,183
599667514863225984,245
599667514870913536,261
599667514878601088,202
599667514886288640,188
599667514893976192,200
599667514901663744,171
599667514909351296,117
599667514917038848,51
599667514924726272,-23
599667514932413824,-89
599667514940101376,-131
599667514947788928,-150
599667514955476480,-155
599667514963164032,-167
599667514970851584,-190
599667514978539136,-197
599667514986226688,-181
599667514993914240,-155
599667515001601664,-146
599667515009289216,-181
599667515016976768,-200
599667515024664370,-146
599667515032351872,-115
599667515040039424,-143
599667515047727104,-131
599667515055414656,-89
599667515063102336,-89
599667515070789888,-98
599667515078477568,-89
599667515086165120,-91
599667515093852800,-84
599667515101540352,-61
599667515109228032,-63
599667515116915584,-75
599667515124603136,-51
599667515132290816,-35
599667515139978368,-51
599667515147666048,-61
599667515155353600,-51
599667515163041280,-51
599667515170728832,-49
599667515178416512,-44
599667515186104064,-44
599667515193791616,-40
599667515201479296,-23
599667515209166848,-2
599667515216854528,-11
599667515224542080,-54
599667515232229760,-47
599667515239917312,0
599667515247604992,0
599667515255292544,-23
599667515262980224,-4
599667515270667776,7
599667515278355328,-18
599667515286043008,-30
599667515293730560,-21
599667515301418240,-21
599667515309105792,2
599667515316793472,28
599667515324481024,30
599667515332168704,42
599667515339856256,47
599667515347543808,44
599667515355231488,63
599667515362919040,68
599667515370606720,51
599667515378294272,47
599667515385981952,42
599667515393669504,47
599667515401357184,65
599667515409044736,49
599667515416732416,-47
599667515424419968,-237
599667515432107520,-318
599667515439795200,106
599667515447482752,1053
599667515455170432,1854
599667515462857984,1573
599667515470545664,386
599667515478233216,-308
599667515485920896,-174
599667515493608448,-56
599667515501296000,-49
599667515508983680,73
599667515516671232,110
599667515524358912,89
599667515532046464,129
599667515539734144,136
599667515547421696,120
599667515555109376,155
599667515562796928,176
599667515570484608,190
599667515578172160,259
599667515585859876,325
599667515593547264,318
599667515601234688,308
599667515608922240,586
599667515616609664,1691
599667515624297088,2763
599667515631984640,3510
599667515639672064,6516
599667515647359616,9821
599667515655047040,8860
599667515662734464,6912
599667515670422016,7576
599667515678109440,7897
599667515685796864,7244
599667515693484416,8900
599667515701171840,12279
599667515708859264,11935
599667515716546816,7748
599667515724234240,6250
599667515731921792,7605
599667515739609216,8537
599667515747296640,10743
599667515754984192,12736
599667515762671616,10224
599667515770359040,7390
599667515778046592,7937
599667515785734016,6535
599667515793421440,3710
599667515801108992,5060
599667515808796416,10104
599667515816483840,14258
599667515824171392,14434
599667515831858816,13699
599667515839546368,14406
599667515847233792,14498
599667515854921216,13982
599667515862608768,14020
599667515870296192,14079
599667515877983616,13822
599667515885671168,13690
599667515893358592,13624
599667515901046016,13454
599667515908733568,13285
599667515916420992,13068
599667515924108544,12802
599667515931795968,12627
599667515939483392,12479
599667515947170944,12241
599667515954858368,12024
599667515962545792,11881
599667515970233344,11770
599667515977920768,11654
599667515985608192,11440
599667515993295744,11204
599667516000983168,11063
599667516008670720,10929
599667516016358144,10731
599667516024045568,10439
599667516031733120,10111
599667516039420544,9930
599667516047107968,9854
599667516054795520,9739
599667516062482944,9645
599667516070170368,9607
599667516077857920,9536
599667516085545344,9412
599667516093232768,9256
599667516100920320,9122
599667516108607744,9032
599667516116295296,8827
599667516123982720,8464
599667516131670144,8120
599667516139357696,7923
599667516147045204,7850
599667516154732544,7800
599667516162419840,7715
599667516170107264,7564
599667516177794560,7360
599667516185481856,7256
599667516193169152,7480
599667516200856576,8012
599667516208543872,8349
599667516216231168,7956
599667516223918464,7294
599667516231605888,7164
599667516239293184,7433
599667516246980480,7729
599667516254667904,7986
599667516262355200,8022
599667516270042496,7857
599667516277729792,7833
599667516285417216,8017
599667516293104512,8146
599667516300791808,8120
599667516308479104,8031
599667516316166528,7826
599667516323853824,7454
599667516331541120,7077
599667516339228544,6872
599667516346915840,6773
599667516354603136,6608
599667516362290432,6436
599667516369977856,6354
599667516377665152,6264
599667516385352448,6127
599667516393039744,5953
599667516400727168,5722
599667516408414464,5548
599667516416101760,5425
599667516423789184,5220
599667516431476480,5006
599667516439163776,4898
599667516446851072,4853
599667516454538496,4784
599667516462225792,4636
599667516469913088,4417
599667516477600384,4311
599667516485287808,4351
599667516492975104,4035
599667516500662400,3034
599667516508349824,2530
599667516516037120,3215
599667516523724416,3533
599667516531411712,3069
599667516539099136,2721
599667516546786432,2424
599667516554473728,2219
599667516562161024,2414
599667516569848448,2815
599667516577535744,3145
599667516585223040,3345
599667516592910464,3677
599667516600597760,4231
599667516608285056,4598
599667516615972352,4787
599667516623659776,5041
599667516631347072,5138
599667516639034368,4829
599667516646721664,4316
599667516654409088,4005
599667516662096384,3861
599667516669783680,3927
599667516677471104,4339
599667516685158400,4514
599667516692845696,4153
599667516700532992,3880
599667516708220362,3847
599667516715907712,3658
599667516723595008,3430
599667516731282432,3324
599667516738969728,3145
599667516746657024,2987
599667516754344320,2900
599667516762031744,2697
599667516769719040,2410
599667516777406336,2160
599667516785093632,2134
599667516792781056,2134
599667516800468352,1934
599667516808155648,2016
599667516815843072,2374
599667516823530368,2459
599667516831217664,2334
599667516838904960,2259
599667516846592384,2318
599667516854279680,2502
599667516861966976,2688
599667516869654272,2996
599667516877341696,3420
599667516885028992,3585
599667516892716288,3588
599667516900403712,3710
599667516908091008,3656
599667516915778304,3270
599667516923465600,3114
599667516931153024,3767
599667516938840320,4551
599667516946527616,3958
599667516954214912,2615
599667516961902336,2497
599667516969589632,3093
599667516977276928,3208
599667516984964352,3173
599667516992651648,3043
599667517000338944,2758
599667517008026240,3043
599667517015713664,3609
599667517023400960,3425
599667517031088256,2933
599667517038775552,2777
599667517046462976,2822
599667517054150272,3025
599667517061837568,3166
599667517069524992,3098
599667517077212288,3025
599667517084899584,3010
599667517092586880,3060
599667517100274304,3152
599667517107961600,3128
599667517115648896,3013
599667517123336192,2975
599667517131023616,3003
599667517138710912,2928
599667517146398208,2796
599667517154085632,2782
599667517161772928,2815
599667517169460224,2780
599667517177147520,2725
599667517184834944,2704
599667517192522240,2721
599667517200209536,2794
599667517207896832,2803
599667517215584256,2704
599667517223271552,2695
599667517230958848,2716
599667517238646272,2476
599667517246333568,2070
599667517254020864,1948
599667517261708160,2110
599667517269395516,2150
599667517277083008,2087
599667517284770560,2040
599667517292458112,2089
599667517300145664,2436
599667517307833216,2735
599667517315520768,2798
599667517323208192,2869
599667517330895744,2751
599667517338583296,2504
599667517346270848,2551
599667517353958400,2633
599667517361645952,2542
599667517369333504,2600
599667517377021056,2780
599667517384708608,2744
599667517392396160,2525
599667517400083584,2428
599667517407771136,2502
599667517415458688,2527
599667517423146240,2447
599667517430833792,2412
599667517438521344,2403
599667517446208896,2301
599667517453896448,2240
599667517461584000,2273
599667517469271552,2233
599667517476959104,2238
599667517484646528,2381
599667517492334080,2447
599667517500021632,2410
599667517507709184,2410
599667517515396736,2421
599667517523084288,2322
599667517530771840,2174
599667517538459392,2134
599667517546146944,2061
599667517553834496,1799
599667517561522048,1660
599667517569209472,1766
599667517576897024,1774
599667517584584576,1620
599667517592272128,1625
599667517599959680,1823
599667517607647232,1861
599667517615334784,1757
599667517623022336,2061
599667517630709888,2772
599667517638397440,3255
599667517646084864,3013
599667517653772416,2202
599667517661459968,1762
599667517669147520,1962
599667517676835072,2103
599667517684522624,2021
599667517692210176,2016
599667517699897728,2068
599667517707585280,2056
599667517715272832,2004
599667517722960384,1974
599667517730647808,1908
599667517738335360,1811
599667517746022912,1870
599667517753710464,1988
599667517761398016,1884
599667517769085568,1675
599667517776773120,1550
599667517784460672,1394
599667517792148224,1173
599667517799835776,1071
599667517807523200,1064
599667517815210752,923
599667517822898304,744
599667517830585931,702
599667517838273536,662
599667517845961088,607
599667517853648640,624
599667517861336192,664
599667517869023744,727
599667517876711296,810
599667517884398720,888
599667517892086272,963
599667517899773824,970
599667517907461376,904
599667517915148928,878
599667517922836480,871
599667517930524032,798
599667517938211584,744
599667517945899136,704
599667517953586688,647
599667517961274112,718
599667517968961664,848
599667517976649216,841
599667517984336768,753
599667517992024320,772
599667517999711872,885
599667518007399424,895
599667518015086976,786
599667518022774528,720
599667518030462080,772
599667518038149632,852
599667518045837056,890
599667518053524608,892
599667518061212160,852
599667518068899712,775
599667518076587264,614
599667518084274816,440
599667518091962368,438
599667518099649920,457
599667518107337472,400
599667518115025024,525
599667518122712576,775
599667518130400000,869
599667518138087552,864
599667518145775104,923
599667518153462656,1005
599667518161150208,977
599667518168837760,850
599667518176525312,791
599667518184212864,836
599667518191900416,925
599667518199587968,1133
599667518207275392,1333
599667518214962944,1302
599667518222650496,1123
599667518230338048,1013
599667518238025600,1029
599667518245713152,1057
599667518253400704,1003
599667518261088256,942
599667518268775808,930
599667518276463360,890
599667518284150912,760
599667518291838336,572
599667518299525888,461
599667518307213440,659
599667518314900992,1182
599667518322588544,1665
599667518330276096,1656
599667518337963648,1053
599667518345651200,504
599667518353338752,588
599667518361026304,791
599667518368713856,683
599667518376401280,614
599667518384088832,690
599667518391776350,640
599667518399463552,480
599667518407150720,490
599667518414837760,598
599667518422524928,680
599667518430212096,897
599667518437899136,987
599667518445586304,810
599667518453273344,876
599667518460960512,1013
599667518468647680,852
599667518476334720,812
599667518484021888,954
599667518491709056,973
599667518499396096,980
599667518507083264,1154
599667518514770432,1390
599667518522457472,1488
599667518530144640,1458
599667518537831808,1460
599667518545518848,1578
599667518553206016,1752
599667518560893056,1901
599667518568580224,2004
599667518576267392,1976
599667518583954432,1889
599667518591641600,2000
599667518599328768,2169
599667518607015808,2153
599667518614702976,2011
599667518622390144,1917
599667518630077184,2000
599667518637764352,2110
599667518645451392,2141
599667518653138560,2226
599667518660825728,2318
599667518668512768,2271
599667518676199936,2341
599667518683887104,2749
599667518691574144,3048
599667518699261312,3020
599667518706948480,3020
599667518714635520,3147
599667518722322688,3204
599667518730009856,3156
599667518737696896,3156
599667518745384064,3253
599667518753071104,3288
599667518760758272,3199
599667518768445440,3145
599667518776132480,3197
599667518783819648,3270
599667518791506816,3227
599667518799193856,3095
599667518806881024,3058
599667518814568192,3100
599667518822255232,3032
599667518829942400,2845
599667518837629440,2829
599667518845316608,2959
599667518853003776,2848
599667518860690816,2749
599667518868377984,2933
599667518876065152,2916
599667518883752192,2648
599667518891439360,2600
599667518899126528,2622
599667518906813568,2438
599667518914500736,2313
599667518922187776,2304
599667518929874944,2160
599667518937562112,2044
599667518945249152,2125
599667518952936247,2047
599667518960623744,1726
599667518968311296,1503
599667518975998848,1411
599667518983686400,1422
599667518991373952,1799
599667518999061504,2264
599667519006748928,2049
599667519014436480,1095
599667519022124032,150
599667519029811584,-315
599667519037499136,-402
599667519045186688,-603
599667519052874240,-1241
599667519060561792,-1373
599667519068249344,-956
599667519075936896,-1797
599667519083624320,-3091
599667519091311872,-2718
599667519098999424,-2113
599667519106686976,-2626
599667519114374528,-3145
599667519122062080,-2902
599667519129749632,-2871
599667519137437184,-3859
599667519145124736,-4391
599667519152812288,-4127
599667519160499840,-4367
599667519168187264,-5201
599667519175874816,-5531
599667519183562368,-4509
599667519191249920,-3621
599667519198937472,-4078
599667519206625024,-4525
599667519214312576,-4377
599667519222000128,-4294
599667519229687680,-4327
599667519237375232,-4082
599667519245062784,-3475
599667519252750208,-3060
599667519260437760,-3133
599667519268125312,-3135
599667519275812864,-3046
599667519283500416,-3281
599667519291187968,-3517
599667519298875520,-3505
599667519306563072,-3581
599667519314250624,-3807
599667519321938176,-4059
599667519329625600,-4539
599667519337313152,-5034
599667519345000704,-5378
599667519352688256,-5779
599667519360375808,-5995
599667519368063360,-5986
599667519375750912,-6012
599667519383438464,-6219
599667519391126016,-6584
599667519398813568,-6653
599667519406501120,-6547
599667519414188544,-6714
599667519421876096,-6990
599667519429563648,-7041
599667519437251200,-6688
599667519444938752,-6306
599667519452626304,-6285
599667519460313856,-6302
599667519468001408,-6170
599667519475688960,-6085
599667519483376512,-5974
599667519491063936,-5781
599667519498751488,-5701
599667519506439040,-5720
599667519514126662,-5616
599667519521814272,-5508
599667519529501824,-5531
599667519537189376,-5404
599667519544876928,-5209
599667519552564480,-5256
599667519560252032,-5331
599667519567939456,-5246
599667519575627008,-5058
599667519583314560,-4888
599667519591002112,-4822
599667519598689664,-4770
599667519606377216,-4763
599667519614064768,-4796
599667519621752320,-4676
599667519629439872,-4440
599667519637127424,-4422
599667519644814848,-4605
599667519652502400,-4608
599667519660189952,-4266
599667519667877504,-3564
599667519675565056,-2864
599667519683252608,-2857
599667519690940160,-3383
599667519698627712,-3675
599667519706315264,-3637
599667519714002816,-3541
599667519721690368,-3420
599667519729377792,-3397
599667519737065344,-3475
599667519744752896,-3399
599667519752440448,-3310
599667519760128000,-3413
599667519767815552,-3425
599667519775503104,-3192
599667519783190656,-3003
599667519790878208,-3020
599667519798565760,-3010
599667519806253312,-2890
599667519813940736,-2911
599667519821628288,-2937
599667519829315840,-2893
599667519837003392,-2982
599667519844690944,-2947
599667519852378496,-2697
599667519860066048,-2617
599667519867753600,-2681
599667519875441152,-2553
599667519883128704,-2282
599667519890816128,-2150
599667519898503680,-2085
599667519906191232,-1934
599667519913878784,-1865
599667519921566336,-1920
599667519929253888,-1953
599667519936941440,-1910
599667519944628992,-1870
599667519952316544,-1898
599667519960004096,-1924
599667519967691648,-1934
599667519975379072,-1946
599667519983066624,-1903
599667519990754176,-1957
599667519998441728,-2101
599667520006129280,-1988
599667520013816832,-1653
599667520021504384,-1432
599667520029191936,-1411
599667520036879488,-1453
599667520044567040,-1444
599667520052254464,-1406
599667520059942016,-1415
599667520067629568,-1453
599667520075317077,-1453
599667520083004544,-1463
599667520090691968,-1448
599667520098379392,-1338
599667520106066688,-1253
599667520113754112,-1239
599667520121441536,-1189
599667520129128960,-1081
599667520136816384,-989
599667520144503808,-925
599667520152191104,-843
599667520159878528,-779
599667520167565952,-709
599667520175253376,-680
599667520182940800,-796
599667520190628096,-864
599667520198315520,-765
599667520206002944,-709
599667520213690368,-777
599667520221377792,-744
599667520229065216,-647
599667520236752512,-725
599667520244439936,-775
599667520252127360,-654
599667520259814784,-520
599667520267502208,-414
599667520275189504,-381
599667520282876928,-459
599667520290564352,-541
599667520298251776,-511
599667520305939200,-438
599667520313626624,-490
599667520321313920,-511
599667520329001344,-386
599667520336688768,-440
599667520344376192,-652
599667520352063616,-556
599667520359750912,-18
599667520367438336,657
599667520375125760,878
599667520382813184,254
599667520390500608,-520
599667520398188032,-619
599667520405875328,-442
599667520413562752,-466
599667520421250176,-494
599667520428937600,-419
599667520436625024,-391
599667520444312320,-426
599667520451999744,-384
599667520459687168,-351
599667520467374592,-369
599667520475062016,-348
599667520482749440,-327
599667520490436736,-308
599667520498124160,-341
599667520505811584,-471
599667520513499008,-459
599667520521186432,-233
599667520528873728,-94
599667520536561152,-117
599667520544248576,-122
599667520551936000,-87
599667520559623424,-87
599667520567310720,-110
599667520574998144,-89
599667520582685568,23
599667520590372992,143
599667520598060416,235
599667520605747840,280
599667520613435136,242
599667520621122560,261
599667520628809984,339
599667520636497322,355
599667520644184832,336
599667520651872384,325
599667520659560064,275
599667520667247616,197
599667520674935296,230
599667520682622848,355
599667520690310528,402
599667520697998080,431
599667520705685760,539
599667520713373312,614
599667520721060992,544
599667520728748544,388
599667520736436096,386
599667520744123776,511
599667520751811328,459
599667520759499008,294
599667520767186560,303
599667520774874240,541
599667520782561792,801
599667520790249472,899
599667520797937024,916
599667520805624576,911
599667520813312256,951
599667520820999808,1170
599667520828687488,1470
599667520836375040,1757
599667520844062720,2160
599667520851750272,2506
599667520859437952,2747
599667520867125504,3192
599667520874813184,3602
599667520882500736,3722
599667520890188288,3830
599667520897875968,4160
599667520905563520,4742
599667520913251200,5974
599667520920938752,7859
599667520928626432,8834
599667520936313984,8559
599667520944001664,8483
599667520951689216,8611
599667520959376768,8389
599667520967064448,8295
599667520974752000,8384
599667520982439680,8259
599667520990127232,8080
599667520997814912,8088
599667521005502464,8036
599667521013190144,7859
599667521020877696,7765
599667521028565376,7687
599667521036252928,7480
599667521043940480,7282
599667521051628160,7202
599667521059315712,7131
599667521067003392,6999
599667521074690944,6794
599667521082378624,6568
599667521090066176,6485
599667521097753856,6547
599667521105441408,6547
599667521113128960,6372
599667521120816640,6174
599667521128504192,6226
599667521136191872,6542
599667521143879424,6971
599667521151567104,7091
599667521159254656,6427
599667521166942336,5588
599667521174629888,5475
599667521182317568,5595
599667521190005120,5468
599667521197692824,5491
599667521205380352,5567
599667521213067904,5411
599667521220755584,5239
599667521228443136,5112
599667521236130816,4940
599667521243818368,4756
599667521251506048,4462
599667521259193600,4132
599667521266881280,4059
599667521274568832,4174
599667521282256512,4118
599667521289944064,3889
599667521297631616,3614
599667521305319296,3263
599667521313006848,3145
599667521320694528,3336
599667521328382080,3260
599667521336069760,2942
599667521343757312,2893
599667521351444992,3189
599667521359132544,3856
599667521366820096,4615
599667521374507776,4820
599667521382195328,4669
599667521389883008,4700
599667521397570560,4770
599667521405258240,4829
599667521412945792,4996
599667521420633472,5079
599667521428321024,5055
599667521436008704,4975
599667521443696256,4853
599667521451383808,4881
599667521459071488,4961
599667521466759040,4888
599667521474446720,4808
599667521482134272,4827
599667521489821952,4881
599667521497509504,4902
599667521505197184,4883
599667521512884736,4843
599667521520572288,4822
599667521528259968,4850
599667521535947520,4839
599667521543635200,4780
599667521551322752,4810
599667521559010432,4893
599667521566697984,4879
599667521574385664,4836
599667521582073216,4902
599667521589760896,4914
599667521597448448,4759
599667521605136000,4662
599667521612823680,4709
599667521620511232,4756
599667521628198912,4749
599667521635886464,4742
599667521643574144,4742
599667521651261696,4718
599667521658949376,4685
599667521666636928,4693
599667521674324480,4685
599667521682012160,4591
599667521689699712,4504
599667521697387392,4481
599667521705074944,4464
599667521712762624,4415
599667521720450176,4268
599667521728137856,4085
599667521735825408,4005
599667521743513088,3962
599667521751200640,3859
599667521758888326,3764
599667521766575488,3705
599667521774262656,3632
599667521781949824,3625
599667521789637120,3698
599667521797324288,3731
599667521805011456,3689
599667521812698624,3644
599667521820385792,3571
599667521828072960,3453
599667521835760256,3418
599667521843447424,3387
599667521851134592,3225
599667521858821760,3131
599667521866508928,3192
599667521874196224,3211
599667521881883392,3140
599667521889570560,3109
599667521897257728,3147
599667521904944896,3161
599667521912632064,3156
599667521920319360,3180
599667521928006528,3119
599667521935693696,2966
599667521943380864,2907
599667521951068032,2944
599667521958755328,2881
599667521966442496,2772
599667521974129664,2789
599667521981816832,2787
599667521989504000,2596
599667521997191296,2367
599667522004878464,2421
599667522012565632,2869
599667522020252800,3486
599667522027939968,3771
599667522035627136,3284
599667522043314432,2572
599667522051001600,2461
599667522058688768,2617
599667522066375936,2612
599667522074063104,2615
599667522081750400,2589
599667522089437568,2520
599667522097124736,2582
599667522104811904,2643
599667522112499072,2575
599667522120186240,2553
599667522127873536,2600
599667522135560704,2558
599667522143247872,2530
599667522150935040,2622
599667522158622208,2652
599667522166309504,2584
599667522173996672,2596
599667522181683840,2643
599667522189371008,2591
599667522197058176,2520
599667522204745344,2518
599667522212432640,2523
599667522220119808,2502
599667522227806976,2502
599667522235494144,2492
599667522243181312,2450
599667522250868608,2492
599667522258555776,2546
599667522266242944,2457
599667522273930112,2370
599667522281617280,2398
599667522289304576,2403
599667522296991744,2386
599667522304678912,2403
599667522312366080,2388
599667522320053310,2358
599667522327740800,2289
599667522335428352,2141
599667522343116032,2066
599667522350803584,2115
599667522358491264,2118
599667522366178816,1990
599667522373866496,1880
599667522381554048,1882
599667522389241728,1901
599667522396929280,1865
599667522404616960,1828
599667522412304512,1844
599667522419992064,1858
599667522427679744,1809
599667522435367296,1743
599667522443054976,1684
599667522450742528,1691
599667522458430208,1741
599667522466117760,1719
599667522473805440,1691
599667522481492992,1705
599667522489180544,1632
599667522496868224,1583
599667522504555776,1703
599667522512243456,1757
599667522519931008,1613
599667522527618688,1500
599667522535306240,1531
599667522542993920,1590
599667522550681472,1604
599667522558369152,1625
599667522566056704,1606
599667522573744256,1510
599667522581431936,1507
599667522589119488,1606
599667522596807168,1571
599667522604494720,1401
599667522612182400,1295
599667522619869952,1302
599667522627557632,1267
599667522635245184,1201
599667522642932736,1229
599667522650620416,1159
599667522658307968,958
599667522665995648,940
599667522673683200,1064
599667522681370880,1057
599667522689058432,968
599667522696746112,928
599667522704433664,904
599667522712121344,869
599667522719808896,890
599667522727496448,940
599667522735184128,956
599667522742871680,965
599667522750559360,958
599667522758246912,916
599667522765934592,907
599667522773622144,928
599667522781309824,911
599667522788997376,899
599667522796684928,942
599667522804372608,994
599667522812060160,928
599667522819747840,713
599667522827435392,735
599667522835123072,1229
599667522842810624,1797
599667522850498304,1844
599667522858185856,1272
599667522865873536,782
599667522873561088,876
599667522881248812,1020
599667522888936192,892
599667522896623616,824
599667522904311040,859
599667522911998336,907
599667522919685760,977
599667522927373184,968
599667522935060608,909
599667522942748032,930
599667522950435456,944
599667522958122752,897
599667522965810176,951
599667522973497600,1079
599667522981185024,1112
599667522988872448,1102
599667522996559744,1144
599667523004247168,1159
599667523011934592,1140
599667523019622016,1130
599667523027309440,1086
599667523034996864,1048
599667523042684160,1046
599667523050371584,1029
599667523058059008,1060
599667523065746432,1116
599667523073433856,1041
599667523081121152,881
599667523088808576,831
599667523096496000,914
599667523104183424,1017
599667523111870848,1067
599667523119558272,1022
599667523127245568,937
599667523134932992,911
599667523142620416,947
599667523150307840,961
599667523157995264,930
599667523165682560,911
599667523173369984,899
599667523181057408,803
599667523188744832,685
599667523196432256,697
599667523204119552,852
599667523211806976,1041
599667523219494400,1104
599667523227181824,1147
599667523234869248,1258
599667523242556672,1239
599667523250243968,1114
599667523257931392,1114
599667523265618816,1166
599667523273306240,1159
599667523280993664,1135
599667523288680960,1071
599667523296368384,996
599667523304055808,1015
599667523311743232,1081
599667523319430656,1088
599667523327118080,1024
599667523334805376,956
599667523342492800,963
599667523350180224,980
599667523357867648,963
599667523365555072,902
599667523373242368,765
599667523380929792,680
599667523388617216,690
599667523396304640,737
599667523403992064,881
599667523411679488,1024
599667523419366784,1076
599667523427054208,1107
599667523434741632,1097
599667523442429053,1083
599667523450116608,1121
599667523457804160,1067
599667523465491712,937
599667523473179264,850
599667523480866816,883
599667523488554368,977
599667523496241792,982
599667523503929344,1029
599667523511616896,1079
599667523519304448,965
599667523526992000,876
599667523534679552,968
599667523542367104,1114
599667523550054656,1100
599667523557742208,1029
599667523565429760,1112
599667523573117184,1149
599667523580804736,1055
599667523588492288,1001
599667523596179840,956
599667523603867392,1027
599667523611554944,1229
599667523619242496,1300
599667523626930048,1189
599667523634617600,883
599667523642305152,647
599667523649992704,866
599667523657680128,1357
599667523665367680,1722
599667523673055232,1590
599667523680742784,899
599667523688430336,374
599667523696117888,478
599667523703805440,713
599667523711492992,751
599667523719180544,742
599667523726868096,803
599667523734555648,921
599667523742243072,1114
599667523749930624,1262
599667523757618176,1222
599667523765305728,1218
599667523772993280,1161
599667523780680832,881
599667523788368384,706
599667523796055936,709
599667523803743488,735
599667523811431040,793
599667523819118464,824
599667523826806016,817
599667523834493568,855
599667523842181120,965
599667523849868672,1050
599667523857556224,1046
599667523865243776,1067
599667523872931328,1140
599667523880618880,1166
599667523888306432,1149
599667523895993984,1140
599667523903681408,1121
599667523911368960,1182
599667523919056512,1439
599667523926744064,1623
599667523934431616,1519
599667523942119168,1406
599667523949806720,1312
599667523957494272,1079
599667523965181824,956
599667523972869376,996
599667523980556800,984
599667523988244352,916
599667523995931904,876
599667524003619468,928
599667524011307008,942
599667524018994560,864
599667524026682112,843
599667524034369664,831
599667524042057216,810
599667524049744768,852
599667524057432192,876
599667524065119744,888
599667524072807296,949
599667524080494848,947
599667524088182400,871
599667524095869952,914
599667524103557504,1008
599667524111245056,956
599667524118932608,857
599667524126620160,829
599667524134307584,772
599667524141995136,709
599667524149682688,772
599667524157370240,836
599667524165057792,789
599667524172745344,836
599667524180432896,965
599667524188120448,1013
599667524195808000,1034
599667524203495552,1020
599667524211183104,994
599667524218870528,1055
599667524226558080,1074
599667524234245632,935
599667524241933184,843
599667524249620736,911
599667524257308288,904
599667524264995840,791
599667524272683392,763
599667524280370944,808
599667524288058496,782
599667524295746048,744
599667524303433472,782
599667524311121024,791
599667524318808576,753
599667524326496128,727
599667524334183680,680
599667524341871232,624
599667524349558784,598
599667524357246336,581
599667524364933888,607
599667524372621440,683
599667524380308864,685
599667524387996416,574
599667524395683968,480
599667524403371520,492
599667524411059072,558
599667524418746624,638
599667524426434176,709
599667524434121728,709
599667524441809280,711
599667524449496832,720
599667524457184384,676
599667524464871808,680
599667524472559360,758
599667524480246912,784
599667524487934464,768
599667524495622016,744
599667524503309568,713
599667524510997120,695
599667524518684672,605
599667524526372224,579
599667524534059776,885
599667524541747200,1434
599667524549434752,1797
599667524557122304,1481
599667524564809883,779
599667524572497408,534
599667524580184960,685
599667524587872512,739
599667524595560064,772
599667524603247616,871
599667524610935168,890
599667524618622592,843
599667524626310144,786
599667524633997696,711
599667524641685248,695
599667524649372800,723
599667524657060352,716
599667524664747904,716
599667524672435456,716
599667524680123008,695
599667524687810560,657
599667524695497984,617
599667524703185536,643
599667524710873088,699
599667524718560640,702
599667524726248192,687
599667524733935744,692
599667524741623296,685
599667524749310848,654
599667524756998400,636
599667524764685952,647
599667524772373504,695
599667524780060928,744
599667524787748480,735
599667524795436032,706
599667524803123584,685
599667524810811136,657
599667524818498688,678
599667524826186240,690
599667524833873792,626
599667524841561344,567
599667524849248896,534
599667524856936448,490
599667524864623872,468
599667524872311424,464
599667524879998976,459
599667524887686528,487
599667524895374080,508
599667524903061632,508
599667524910749184,523
599667524918436736,530
599667524926124288,551
599667524933811840,577
599667524941499264,563
599667524949186816,515
599667524956874368,426
599667524964561920,424
599667524972249472,548
599667524979937024,579
599667524987624576,525
599667524995312128,511
599667525002999680,475
599667525010687232,447
599667525018374784,473
599667525026062208,478
599667525033749760,457
599667525041437312,452
599667525049124864,426
599667525056812416,381
599667525064499968,407
599667525072187520,454
599667525079875072,428
599667525087562624,417
599667525095250176,445
599667525102937600,445
599667525110625152,464
599667525118312704,525
599667525126000298,570
599667525133687808,588
599667525141375360,579
599667525149063040,565
599667525156750592,610
599667525164438272,680
599667525172125824,692
599667525179813504,621
599667525187501056,520
599667525195188736,442
599667525202876288,379
599667525210563968,343
599667525218251520,367
599667525225939072,395
599667525233626752,374
599667525241314304,386
599667525249001984,431
599667525256689536,438
599667525264377216,471
599667525272064768,546
599667525279752448,680
599667525287440000,923
599667525295127552,1088
599667525302815232,1074
599667525310502784,1055
599667525318190464,1074
599667525325878016,1038
599667525333565696,940
599667525341253248,772
599667525348940928,621
599667525356628480,596
599667525364316160,638
599667525372003712,633
599667525379691264,624
599667525387378944,643
599667525395066496,662
599667525402754176,669
599667525410441728,650
599667525418129408,610
599667525425816960,600
599667525433504640,662
599667525441192192,727
599667525448879744,711
599667525456567424,640
599667525464254976,593
599667525471942656,560
599667525479630208,494
599667525487317888,588
599667525495005440,1088
599667525502693120,1710
599667525510380672,1863
599667525518068352,1342
599667525525755904,751
599667525533443456,683
599667525541131136,822
599667525548818688,859
599667525556506368,907
599667525564193920,956
599667525571881600,1010
599667525579569152,1109
599667525587256832,1112
599667525594944384,1027
599667525602631936,1024
599667525610319616,1022
599667525618007168,994
599667525625694848,1043
599667525633382400,1060
599667525641070080,1013
599667525648757632,987
599667525656445312,930
599667525664132864,871
599667525671820544,864
599667525679508096,805
599667525687195804,739
599667525694883328,772
599667525702570880,805
599667525710258560,805
599667525717946112,805
599667525725633792,791
599667525733321344,782
599667525741009024,786
599667525748696576,789
599667525756384256,808
599667525764071808,801
599667525771759488,742
599667525779447040,697
599667525787134592,725
599667525794822272,808
599667525802509824,824
599667525810197504,782
599667525817885056,798
599667525825572736,789
599667525833260288,758
599667525840947968,810
599667525848635520,796
599667525856323072,739
599667525864010752,798
599667525871698304,793
599667525879385984,685
599667525887073536,669
599667525894761216,702
599667525902448768,699
599667525910136448,720
599667525917824000,772
599667525925511680,803
599667525933199232,779
599667525940886784,737
599667525948574464,753
599667525956262016,758
599667525963949696,699
599667525971637248,671
599667525979324928,727
599667525987012480,770
599667525994700160,711
599667526002387712,662
599667526010075264,669
599667526017762944,657
599667526025450496,671
599667526033138176,716
599667526040825728,659
599667526048513408,551
599667526056200960,548
599667526063888640,596
599667526071576192,586
599667526079263872,636
599667526086951424,718
599667526094638976,631
599667526102326656,532
599667526110014208,607
599667526117701888,716
599667526125389440,749
599667526133077120,744
599667526140764672,753
599667526148452352,801
599667526156139904,772
599667526163827456,671
599667526171515136,706
599667526179202688,798
599667526186890368,805
599667526194577920,812
599667526202265600,808
599667526209953152,727
599667526217640832,706
599667526225328384,779
599667526233016064,775
599667526240703616,704
599667526248391306,770
599667526256078720,895
599667526263766144,857
599667526271453568,798
599667526279140864,822
599667526286828288,793
599667526294515712,742
599667526302203136,758
599667526309890560,786
599667526317577984,772
599667526325265280,805
599667526332952704,871
599667526340640128,848
599667526348327552,819
599667526356014976,836
599667526363702272,810
599667526371389696,810
599667526379077120,864
599667526386764544,892
599667526394451968,864
599667526402139392,789
599667526409826688,756
599667526417514112,718
599667526425201536,591
599667526432888960,501
599667526440576384,421
599667526448263680,313
599667526455951104,454
599667526463638528,954
599667526471325952,1415
599667526479013376,1281
599667526486700800,650
599667526494388096,287
599667526502075520,421
599667526509762944,558
599667526517450368,523
599667526525137792,485
599667526532825088,414
599667526540512512,393
599667526548199936,570
599667526555887360,793
599667526563574784,826
599667526571262080,727
599667526578949504,732
599667526586636928,852
599667526594324352,845
599667526602011776,730
599667526609699200,732
599667526617386496,758
599667526625073920,718
599667526632761344,725
599667526640448768,746
599667526648136192,695
599667526655823488,629
599667526663510912,669
599667526671198336,789
599667526678885760,850
599667526686573184,895
599667526694260608,973
599667526701947904,975
599667526709635328,942
599667526717322752,980
599667526725010176,1001
599667526732697600,958
599667526740384896,914
599667526748072320,841
599667526755759744,753
599667526763447168,709
599667526771134592,662
599667526778822016,586
599667526786509312,558
599667526794196736,527
599667526801884160,447
599667526809571547,369
599667526817259136,336
599667526824946688,343
599667526832634240,325
599667526840321792,346
599667526848009344,433
599667526855696896,466
599667526863384320,419
599667526871071872,322
599667526878759424,249
599667526886446976,254
599667526894134528,282
599667526901822080,287
599667526909509632,320
599667526917197184,414
599667526924884736,475
599667526932572288,457
599667526940259712,431
599667526947947264,433
599667526955634816,414
599667526963322368,343
599667526971009920,292
599667526978697472,252
599667526986385024,186
599667526994072576,103
599667527001760128,9
599667527009447680,-18
599667527017135232,-11
599667527024822656,-37
599667527032510208,28
599667527040197760,148
599667527047885312,150
599667527055572864,101
599667527063260416,106
599667527070947968,157
599667527078635520,162
599667527086323072,146
599667527094010624,195
599667527101698176,223
599667527109385600,42
599667527117073152,-197
599667527124760704,-160
599667527132448256,-44
599667527140135808,-129
599667527147823360,-181
599667527155510912,-134
599667527163198464,-103
599667527170886016,-18
599667527178573568,40
599667527186260992,-4
599667527193948544,-42
599667527201636096,-37
599667527209323648,16
599667527217011200,134
599667527224698752,183
599667527232386304,84
599667527240073856,87
599667527247761408,219
599667527255448960,176
599667527263136512,96
599667527270823936,179
599667527278511488,204
599667527286199040,139
599667527293886592,188
599667527301574144,249
599667527309261696,136
599667527316949248,63
599667527324636800,372
599667527332324352,963
599667527340011904,1338
599667527347699328,1130
599667527355386880,511
599667527363074432,113
599667527370761962,195
599667527378449536,362
599667527386137088,362
599667527393824640,325
599667527401512192,358
599667527409199744,384
599667527416887296,346
599667527424574720,336
599667527432262272,384
599667527439949824,431
599667527447637376,447
599667527455324928,400
599667527463012480,306
599667527470700032,346
599667527478387584,471
599667527486075136,407
599667527493762688,303
599667527501450112,381
599667527509137664,497
599667527516825216,454
599667527524512768,275
599667527532200320,259
599667527539887872,426
599667527547575424,433
599667527555262976,329
599667527562950528,405
599667527570638080,539
599667527578325632,513
599667527586013056,480
599667527593700608,518
599667527601388160,445
599667527609075712,353
599667527616763264,431
599667527624450816,506
599667527632138368,398
599667527639825920,268
599667527647513472,285
599667527655201024,334
599667527662888576,292
599667527670576000,219
599667527678263552,197
599667527685951104,193
599667527693638656,183
599667527701326208,195
599667527709013760,188
599667527716701312,219
599667527724388864,332
599667527732076416,346
599667527739763968,259
599667527747451392,282
599667527755138944,343
599667527762826496,348
599667527770514048,334
599667527778201600,228
599667527785889152,82
599667527793576704,51
599667527801264256,68
599667527808951808,30
599667527816639360,30
599667527824326912,70
599667527832014336,51
599667527839701888,40
599667527847389440,110
599667527855076992,127
599667527862764544,70
599667527870452096,56
599667527878139648,14
599667527885827200,-47
599667527893514752,-23
599667527901202304,-11
599667527908889728,-49
599667527916577280,-47
599667527924264832,-98
599667527931952377,-245
599667527939639936,-285
599667527947327488,-252
599667527955015040,-346
599667527962702592,-471
599667527970390144,-490
599667527978077696,-478
599667527985765120,-457
599667527993452672,-428
599667528001140224,-466
599667528008827776,-530
599667528016515328,-539
599667528024202880,-577
599667528031890432,-678
599667528039577984,-789
599667528047265536,-951
599667528054953088,-1104
599667528062640512,-1133
599667528070328064,-1128
599667528078015616,-1283
599667528085703168,-1507
599667528093390720,-1498
599667528101078272,-1359
599667528108765824,-1465
599667528116453376,-1722
599667528124140928,-1816
599667528131828480,-1724
599667528139516032,-1394
599667528147203456,-921
599667528154891008,-890
599667528162578560,-1458
599667528170266112,-1946
599667528177953664,-1910
599667528185641216,-1701
599667528193328768,-1705
599667528201016320,-1722
599667528208703872,-1609
599667528216391424,-1597
599667528224078976,-1639
599667528231766400,-1545
599667528239453952,-1453
599667528247141504,-1486
599667528254829056,-1557
599667528262516608,-1651
599667528270204160,-1840
599667528277891712,-1960
599667528285579264,-1825
599667528293266816,-1639
599667528300954368,-1668
599667528308641792,-1849
599667528316329344,-2016
599667528324016896,-2099
599667528331704448,-2030
599667528339392000,-1943
599667528347079552,-2026
599667528354767104,-2110
599667528362454656,-2049
599667528370142208,-2042
599667528377829760,-2129
599667528385517312,-2110
599667528393204736,-2106
599667528400892288,-2372
599667528408579840,-2886
599667528416267392,-3286
599667528423954944,-3314
599667528431642496,-3142
599667528439330048,-2862
599667528447017600,-2747
599667528454705152,-3027
599667528462392704,-3234
599667528470080128,-3173
599667528477767680,-3109
599667528485455232,-3072
599667528493142792,-3050
599667528500830720,-3187
599667528508518656,-3298
599667528516206592,-3131
599667528523894656,-3098
599667528531582592,-3305
599667528539270528,-3239
599667528546958464,-3060
599667528554646400,-3239
599667528562334336,-3588
599667528570022400,-3811
599667528577710336,-3764
599667528585398272,-3437
599667528593086208,-3338
599667528600774144,-3425
599667528608462080,-3260
599667528616150144,-3180
599667528623838080,-3237
599667528631526016,-3074
599667528639213952,-2909
599667528646901888,-3017
599667528654589824,-3295
599667528662277888,-3517
599667528669965824,-3576
599667528677653760,-3515
599667528685341696,-3411
599667528693029632,-3439
599667528700717568,-3522
599667528708405632,-3326
599667528716093568,-3079
599667528723781504,-3114
599667528731469440,-3081
599667528739157376,-2909
599667528746845440,-2890
599667528754533376,-2813
599667528762221312,-2624
599667528769909248,-2610
599667528777597184,-2704
599667528785285120,-2782
599667528792973184,-2813
599667528800661120,-2768
599667528808349056,-2886
599667528816036992,-3265
599667528823724928,-3672
599667528831412864,-3877
599667528839100928,-3844
599667528846788864,-3729
599667528854476800,-3614
599667528862164736,-3519
599667528869852672,-3387
599667528877540608,-3185
599667528885228672,-3168
599667528892916608,-3234
599667528900604544,-2975
599667528908292480,-2320
599667528915980416,-1430
599667528923668352,-709
599667528931356416,-666
599667528939044352,-1314
599667528946732288,-1948
599667528954420224,-2059
599667528962108160,-1903
599667528969796224,-1762
599667528977484160,-1623
599667528985172096,-1552
599667528992860032,-1691
599667529000547968,-1799
599667529008235904,-1663
599667529015923968,-1564
599667529023611904,-1561
599667529031299840,-1496
599667529038987776,-1453
599667529046675712,-1463
599667529054363729,-1453
599667529062051328,-1361
599667529069738880,-1229
599667529077426432,-1182
599667529085113984,-1232
599667529092801536,-1258
599667529100489088,-1227
599667529108176512,-1187
599667529115864064,-1154
599667529123551616,-1121
599667529131239168,-1041
599667529138926720,-909
599667529146614272,-753
599667529154301824,-704
599667529161989376,-864
599667529169676928,-888
599667529177364480,-619
599667529185051904,-473
599667529192739456,-475
599667529200427008,-490
599667529208114560,-643
599667529215802112,-768
599667529223489664,-704
599667529231177216,-695
599667529238864768,-834
599667529246552320,-881
599667529254239872,-770
599667529261927424,-739
599667529269614848,-859
599667529277302400,-918
599667529284989952,-819
599667529292677504,-810
599667529300365056,-942
599667529308052608,-937
599667529315740160,-855
599667529323427712,-859
599667529331115264,-822
599667529338802816,-760
599667529346490368,-758
599667529354177792,-765
599667529361865344,-751
599667529369552896,-669
599667529377240448,-614
599667529384928000,-666
599667529392615552,-685
599667529400303104,-654
599667529407990656,-640
599667529415678208,-584
599667529423365760,-527
599667529431053184,-567
599667529438740736,-612
599667529446428288,-563
599667529454115840,-485
599667529461803392,-442
599667529469490944,-421
599667529477178496,-343
599667529484866048,-275
599667529492553600,-336
599667529500241152,-405
599667529507928704,-426
599667529515616128,-433
599667529523303680,-362
599667529530991232,-414
599667529538678784,-605
599667529546366336,-537
599667529554053888,-419
599667529561741440,-523
599667529569428992,-546
599667529577116544,-551
599667529584804096,-669
599667529592491520,-640
599667529600179072,-527
599667529607866624,-596
599667529615554144,-577
599667529623241728,-353
599667529630929280,-303
599667529638616832,-398
599667529646304384,-468
599667529653991936,-572
599667529661679488,-501
599667529669366912,-77
599667529677054464,386
599667529684742016,388
599667529692429568,-117
599667529700117120,-530
599667529707804672,-457
599667529715492224,-306
599667529723179776,-355
599667529730867328,-306
599667529738554880,-216
599667529746242304,-490
599667529753929856,-812
599667529761617408,-716
599667529769304960,-695
599667529776992512,-1064
599667529784680064,-1130
599667529792367616,-869
599667529800055168,-786
599667529807742720,-692
599667529815430272,-647
599667529823117824,-784
599667529830805248,-680
599667529838492800,-292
599667529846180352,-131
599667529853867904,-245
599667529861555456,-263
599667529869243008,-230
599667529876930560,-252
599667529884618112,-188
599667529892305664,-131
599667529899993216,-186
599667529907680768,-89
599667529915368192,124
599667529923055744,148
599667529930743296,89
599667529938430848,169
599667529946118400,259
599667529953805952,169
599667529961493504,7
599667529969181056,-68
599667529976868608,-131
599667529984556160,-268
599667529992243584,-374
599667529999931136,-351
599667530007618688,-228
599667530015306240,-216
599667530022993792,-341
599667530030681344,-353
599667530038368896,-348
599667530046056448,-435
599667530053744000,-426
599667530061431552,-289
599667530069119104,-124
599667530076806528,-150
599667530084494080,-367
599667530092181632,-532
599667530099869184,-711
599667530107556736,-1062
599667530115244288,-1283
599667530122931840,-1213
599667530130619392,-1161
599667530138306944,-1258
599667530145994496,-1401
599667530153681920,-1460
599667530161369472,-1387
599667530169057024,-1406
599667530176744559,-1564
599667530184432128,-1703
599667530192119680,-1689
599667530199807232,-1635
599667530207494784,-1825
599667530215182336,-2030
599667530222869888,-2061
599667530230557312,-2120
599667530238244864,-2120
599667530245932416,-2019
599667530253619968,-1988
599667530261307520,-2009
599667530268995072,-2054
599667530276682624,-2198
599667530284370176,-2355
599667530292057728,-2440
599667530299745280,-2516
599667530307432704,-2567
599667530315120256,-2697
599667530322807808,-2904
599667530330495360,-2881
599667530338182912,-2763
599667530345870464,-2798
599667530353558016,-2739
599667530361245568,-2681
599667530368933120,-2685
599667530376620672,-2428
599667530384308224,-2205
599667530391995648,-2158
599667530399683200,-2049
599667530407370752,-2191
599667530415058304,-2570
599667530422745856,-2674
599667530430433408,-2377
599667530438120960,-1823
599667530445808512,-1328
599667530453496064,-1517
599667530461183616,-2414
599667530468871168,-3048
599667530476558592,-2980
599667530484246144,-2798
599667530491933696,-2697
599667530499621248,-2530
599667530507308800,-2518
599667530514996352,-2567
599667530522683904,-2346
599667530530371456,-2101
599667530538059008,-2113
599667530545746560,-2148
599667530553433984,-2026
599667530561121536,-1868
599667530568809088,-1792
599667530576496640,-1776
599667530584184192,-1840
599667530591871744,-1964
599667530599559296,-1929
599667530607246848,-1764
599667530614934400,-1663
599667530622621952,-1569
599667530630309504,-1460
599667530637996928,-1455
599667530645684480,-1430
599667530653372032,-1314
599667530661059584,-1316
599667530668747136,-1359
599667530676434688,-1326
599667530684122240,-1413
599667530691809792,-1526
599667530699497344,-1472
599667530707184896,-1434
599667530714872320,-1557
599667530722559872,-1691
599667530730247424,-1708
599667530737934974,-1651
599667530745622912,-1609
599667530753310848,-1606
599667530760998656,-1677
599667530768686592,-1755
599667530776374528,-1722
599667530784062336,-1663
599667530791750272,-1677
599667530799438080,-1675
599667530807126016,-1625
599667530814813952,-1566
599667530822501760,-1488
599667530830189696,-1401
599667530837877632,-1314
599667530845565440,-1243
599667530853253376,-1314
599667530860941184,-1479
599667530868629120,-1486
599667530876317056,-1321
599667530884004864,-1185
599667530891692800,-1107
599667530899380736,-1048
599667530907068544,-1050
599667530914756480,-1114
599667530922444288,-1189
599667530930132224,-1246
599667530937820160,-1229
599667530945507968,-1147
599667530953195904,-1109
599667530960883840,-1123
599667530968571648,-1128
599667530976259584,-1147
599667530983947392,-1088
599667530991635328,-895
599667530999323264,-845
599667531007011072,-963
599667531014699008,-1010
599667531022386944,-935
599667531030074752,-801
599667531037762688,-751
599667531045450496,-885
599667531053138432,-1038
599667531060826368,-1020
599667531068514176,-897
599667531076202112,-768
599667531083890048,-692
599667531091577856,-723
599667531099265792,-723
599667531106953728,-614
599667531114641536,-581
599667531122329472,-671
599667531130017280,-725
599667531137705216,-709
599667531145393152,-657
599667531153080960,-586
599667531160768896,-558
599667531168456832,-539
599667531176144640,-499
599667531183832576,-492
599667531191520384,-551
599667531199208320,-702
599667531206896256,-834
599667531214584064,-676
599667531222272000,-153
599667531229959936,485
599667531237647744,685
599667531245335680,73
599667531253023488,-610
599667531260711424,-607
599667531268399360,-449
599667531276087168,-433
599667531283775104,-315
599667531291463040,-282
599667531299150824,-339
599667531306838400,-261
599667531314525952,-162
599667531322213632,-202
599667531329901184,-322
599667531337588864,-365
599667531345276416,-289
599667531352964096,-235
599667531360651648,-247
599667531368339328,-228
599667531376026880,-155
599667531383714560,-115
599667531391402112,-143
599667531399089664,-183
599667531406777344,-240
599667531414464896,-339
599667531422152576,-367
599667531429840128,-256
599667531437527808,-117
599667531445215360,-91
599667531452903040,-193
599667531460590592,-263
599667531468278144,-190
599667531475965824,-113
599667531483653376,-139
599667531491341056,-162
599667531499028608,-103
599667531506716288,-25
599667531514403840,-28
599667531522091520,-122
599667531529779072,-193
599667531537466752,-204
599667531545154304,-223
599667531552841856,-252
599667531560529536,-249
599667531568217088,-190
599667531575904768,-139
599667531583592320,-117
599667531591280000,-91
599667531598967552,-94
599667531606655232,-136
599667531614342784,-183
599667531622030336,-200
599667531629718016,-237
599667531637405568,-287
599667531645093248,-282
599667531652780800,-301
599667531660468480,-313
599667531668156032,-183
599667531675843712,-65
599667531683531264,-143
599667531691218944,-254
599667531698906496,-273
599667531706594048,-261
599667531714281728,-282
599667531721969280,-313
599667531729656960,-299
599667531737344512,-301
599667531745032192,-381
599667531752719744,-405
599667531760407424,-362
599667531768094976,-426
599667531775782528,-515
599667531783470208,-525
599667531791157760,-586
599667531798845440,-716
599667531806532992,-763
599667531814220672,-744
599667531821908224,-808
599667531829595904,-895
599667531837283456,-897
599667531844971136,-805
599667531852658688,-704
599667531860346326,-739
599667531868033920,-720
599667531875721472,-527
599667531883409152,-457
599667531891096704,-558
599667531898784384,-657
599667531906471936,-687
599667531914159616,-695
599667531921847168,-864
599667531929534848,-1234
599667531937222400,-1623
599667531944910080,-2063
599667531952597632,-2527
599667531960285184,-2801
599667531967972864,-3036
599667531975660416,-3312
599667531983348096,-3383
599667531991035648,-3496
599667531998723328,-3757
599667532006410880,-3788
599667532014098560,-3677
599667532021786112,-3689
599667532029473664,-3635
599667532037161344,-3472
599667532044848896,-3427
599667532052536576,-3508
599667532060224128,-3599
599667532067911808,-3614
599667532075599360,-3406
599667532083287040,-2923
599667532090974592,-2341
599667532098662272,-2007
599667532106349824,-2341
599667532114037376,-3036
599667532121725056,-3220
599667532129412608,-3020
599667532137100288,-3032
599667532144787840,-3058
599667532152475520,-2853
599667532160163072,-2709
599667532167850752,-2772
599667532175538304,-2813
599667532183225856,-2763
599667532190913536,-2765
599667532198601088,-2789
599667532206288768,-2704
599667532213976320,-2582
599667532221664000,-2504
599667532229351552,-2457
599667532237039232,-2424
599667532244726784,-2344
599667532252414464,-2207
599667532260102016,-2139
599667532267789568,-2113
599667532275477248,-2007
599667532283164800,-1917
599667532290852480,-1967
599667532298540032,-1868
599667532306227712,-1451
599667532313915264,-1267
599667532321602944,-1642
599667532329290496,-1898
599667532336978048,-1934
599667532344665728,-2346
599667532352353280,-2666
599667532360040960,-2450
599667532367728512,-2264
599667532375416192,-2285
599667532383103744,-2183
599667532390791424,-1875
599667532398478976,-1545
599667532406166656,-1302
599667532413854208,-1102
599667532421541828,-998
599667532429229824,-947
599667532436917760,-829
599667532444605568,-711
599667532452293504,-588
599667532459981440,-452
599667532467669248,-525
599667532475357184,-650
599667532483044992,-572
599667532490732928,-570
599667532498420864,-626
599667532506108672,-556
599667532513796608,-596
599667532521484544,-765
599667532529172352,-751
599667532536860288,-621
599667532544548096,-640
599667532552236032,-723
599667532559923968,-779
599667532567611776,-925
599667532575299712,-1114
599667532582987648,-1010
599667532590675456,-577
599667532598363392,-325
599667532606051200,-442
599667532613739136,-603
599667532621427072,-558
599667532629114880,-355
599667532636802816,-219
599667532644490752,-193
599667532652178560,-188
599667532659866496,-226
599667532667554304,-362
599667532675242240,-482
599667532682930176,-386
599667532690617984,-280
599667532698305920,-468
599667532705993856,-558
599667532713681664,-346
599667532721369600,-235
599667532729057408,-240
599667532736745344,-110
599667532744433280,49
599667532752121088,4
599667532759809024,-183
599667532767496960,-263
599667532775184768,-233
599667532782872704,-237
599667532790560512,-280
599667532798248448,-228
599667532805936384,-51
599667532813624192,122
599667532821312128,278
599667532829000064,449
599667532836687872,504
599667532844375808,412
599667532852063744,409
599667532859751552,530
599667532867439488,577
599667532875127296,537
599667532882815232,563
599667532890503168,657
599667532898190976,643
599667532905878912,541
599667532913566848,520
599667532921254656,539
599667532928942592,532
599667532936630400,447
599667532944318336,285
599667532952006272,195
599667532959694080,179
599667532967382016,164
599667532975069952,193
599667532982757674,115
599667532990445184,-202
599667532998132736,-464
599667533005820288,-171
599667533013507840,485
599667533021195392,791
599667533028882944,473
599667533036570368,-68
599667533044257920,-275
599667533051945472,-273
599667533059633024,-379
599667533067320576,-329
599667533075008128,-183
599667533082695680,-200
599667533090383232,-214
599667533098070784,-197
599667533105758336,-285
599667533113445760,-367
599667533121133312,-301
599667533128820864,-143
599667533136508416,56
599667533144195968,233
599667533151883520,303
599667533159571072,285
599667533167258624,285
599667533174946176,329
599667533182633728,329
599667533190321280,341
599667533198008704,412
599667533205696256,466
599667533213383808,525
599667533221071360,612
599667533228758912,558
599667533236446464,381
599667533244134016,343
599667533251821568,400
599667533259509120,360
599667533267196672,348
599667533274884224,501
599667533282571648,744
599667533290259200,940
599667533297946752,991
599667533305634304,947
599667533313321856,843
599667533321009408,669
599667533328696960,617
599667533336384512,558
599667533344072064,-494
599667533351759616,-2113
599667533359447040,-2358
599667533367134592,-1644
599667533374822144,-753
599667533382509696,1302
599667533390197248,3178
599667533397884800,2919
599667533405572352,2315
599667533413259904,2692
599667533420947456,2626
599667533428635008,2118
599667533436322560,2492
599667533444009984,3218
599667533451697536,3239
599667533459385088,3065
599667533467072640,3133
599667533474760192,3762
599667533482447744,5666
599667533490135296,7211
599667533497822848,6822
599667533505510400,6332
599667533513197952,6693
599667533520885376,6766
599667533528572928,6403
599667533536260480,6217
599667533543948089,6217
599667533551635840,6064
599667533559323648,5732
599667533567011456,5703
599667533574699264,5800
599667533582387072,5157
599667533590074880,4407
599667533597762816,4184
599667533605450624,3531
599667533613138432,2433
599667533620826240,2014
599667533628514048,2040
599667533636201856,1715
599667533643889664,1385
599667533651577472,1413
599667533659265280,1491
599667533666953088,1373
599667533674640896,1291
599667533682328704,1446
599667533690016640,1564
599667533697704448,1507
599667533705392256,1274
599667533713080064,834
599667533720767872,546
599667533728455680,332
599667533736143488,-249
599667533743831296,-1316
599667533751519104,-2683
599667533759206912,-3503
599667533766894720,-3298
599667533774582528,-2558
599667533782270464,-1821
599667533789958272,-1088
599667533797646080,-407
599667533805333888,-1194
599667533813021696,-2862
599667533820709504,-3350
599667533828397312,-3491
599667533836085120,-3258
599667533843772928,-2341
599667533851460736,-2344
599667533859148544,-2683
599667533866836352,-2183
599667533874524288,-1675
599667533882212096,-1415
599667533889899904,-1319
599667533897587712,-1995
599667533905275520,-2699
599667533912963328,-2530
599667533920651136,-2381
599667533928338944,-2577
599667533936026752,-2379
599667533943714560,-2141
599667533951402368,-2377
599667533959090176,-2542
599667533966778112,-2414
599667533974465920,-2348
599667533982153728,-2403
599667533989841536,-2480
599667533997529344,-2579
599667534005217152,-2669
599667534012904960,-2716
599667534020592768,-2664
599667534028280576,-2492
599667534035968384,-2381
599667534043656192,-2315
599667534051344000,-2139
599667534059031936,-2019
599667534066719744,-2000
599667534074407552,-1868
599667534082095360,-1955
599667534089783168,-2464
599667534097470976,-2711
599667534105158852,-2513
599667534112846464,-2308
599667534120534016,-2181
599667534128221696,-2212
599667534135909248,-2393
599667534143596928,-2436
599667534151284480,-2280
599667534158972160,-2042
599667534166659712,-1924
599667534174347392,-2033
599667534182034944,-2155
599667534189722624,-2049
599667534197410176,-1797
599667534205097728,-1677
599667534212785408,-1675
599667534220472960,-1613
599667534228160640,-1564
599667534235848192,-1571
599667534243535872,-1526
599667534251223424,-1505
599667534258911104,-1578
599667534266598656,-1627
599667534274286208,-1557
599667534281973888,-1439
599667534289661440,-1422
599667534297349120,-1359
599667534305036672,-1161
599667534312724352,-1055
599667534320411904,-885
599667534328099584,-518
599667534335787136,-169
599667534343474816,475
599667534351162368,1241
599667534358849920,1262
599667534366537600,1038
599667534374225152,1272
599667534381912832,1378
599667534389600384,1074
599667534397288064,977
599667534404975616,1258
599667534412663296,1347
599667534420350848,1260
599667534428038400,1477
599667534435726080,1766
