599616326187059840,8581
599616326194752128,8451
599616326202444416,8316
599616326210136704,8184
599616326217829120,8016
599616326225521408,7855
599616326233213696,7732
599616326240905984,7607
599616326248598272,7487
599616326256290560,7378
599616326263982976,7238
599616326271675264,7094
599616326279367552,6981
599616326287059840,6872
599616326294752128,6768
599616326302444416,6697
599616326310136704,6598
599616326317829120,6437
599616326325521408,6321
599616326333213696,6253
599616326340905984,6165
599616326348598272,6059
599616326356290560,5938
599616326363982976,5825
599616326371675264,5732
599616326379367552,5647
599616326387059840,5569
599616326394752128,5470
599616326402444416,5359
599616326410136704,5281
599616326417829120,5212
599616326425521408,5125
599616326433213696,5054
599616326440905984,4978
599616326448598272,4881
599616326456290560,4803
599616326463982976,4737
599616326471675264,4661
599616326479367552,4593
599616326487059840,4520
599616326494752128,4432
599616326502444416,4359
599616326510136704,4300
599616326517829120,4241
599616326525521408,4184
599616326533213696,4127
599616326540905984,4063
599616326548598272,4011
599616326556290560,3957
599616326563982976,3903
599616326571675264,3855
599616326579367552,3799
599616326587059840,3735
599616326594752128,3690
599616326602444416,3643
599616326610136704,3555
599616326617829120,3453
599616326625521408,3463
599616326633213696,3671
599616326640905984,3950
599616326648598272,3955
599616326656290560,3565
599616326663982976,3193
599616326671675264,3172
599616326679367552,3264
599616326687059840,3274
599616326694752128,3271
599616326702444416,3274
599616326710136704,3243
599616326717829120,3196
599616326725521408,3153
599616326733213696,3122
599616326740905964,3092
599616326748593408,3052
599616326756280832,3014
599616326763968384,2976
599616326771655808,2938
599616326779343232,2910
599616326787030784,2881
599616326794718208,2846
599616326802405760,2818
599616326810093184,2810
599616326817780608,2806
599616326825468160,2782
599616326833155584,2773
599616326840843008,2789
599616326848530560,2787
599616326856217984,2775
599616326863905408,2780
599616326871592960,2775
599616326879280384,2765
599616326886967936,2761
599616326894655360,2744
599616326902342784,2718
599616326910030336,2718
599616326917717760,2732
599616326925405184,2747
599616326933092736,2761
599616326940780160,2770
599616326948467584,2782
599616326956155136,2780
599616326963842560,2758
599616326971529984,2735
599616326979217536,2721
599616326986904960,2702
599616326994592512,2683
599616327002279936,2669
599616327009967360,2654
599616327017654912,2626
599616327025342336,2598
599616327033029760,2574
599616327040717312,2553
599616327048404736,2529
599616327056092160,2503
599616327063779712,2479
599616327071467136,2446
599616327079154688,2409
599616327086842112,2383
599616327094529536,2347
599616327102217088,2312
599616327109904512,2288
599616327117591936,2257
599616327125279488,2226
599616327132966912,2208
599616327140654336,2167
599616327148341888,2075
599616327156029312,1995
599616327163716864,2070
599616327171404288,2342
599616327179091712,2583
599616327186779264,2472
599616327194466688,2085
599616327202154112,1843
599616327209841664,1862
599616327217529088,1919
599616327225216512,1914
599616327232904064,1907
599616327240591488,1900
599616327248278912,1877
599616327255966464,1853
599616327263653888,1836
599616327271341440,1815
599616327279028864,1791
599616327286716288,1770
599616327294403840,1739
599616327302091292,1706
599616327309778560,1671
599616327317465856,1626
599616327325153280,1588
599616327332840576,1569
599616327340527872,1548
599616327348215168,1524
599616327355902592,1505
599616327363589888,1477
599616327371277184,1435
599616327378964480,1390
599616327386651904,1364
599616327394339200,1356
599616327402026496,1333
599616327409713920,1281
599616327417401216,1238
599616327425088512,1222
599616327432775808,1184
599616327440463232,1132
599616327448150528,1099
599616327455837824,1056
599616327463525120,1004
599616327471212544,974
599616327478899840,940
599616327486587136,884
599616327494274560,803
599616327501961856,749
599616327509649152,728
599616327517336448,676
599616327525023872,607
599616327532711168,579
599616327540398464,553
599616327548085760,496
599616327555773184,444
599616327563460480,399
599616327571147776,359
599616327578835200,319
599616327586522496,243
599616327594209792,177
599616327601897088,165
599616327609584512,139
599616327617271808,80
599616327624959104,40
599616327632646400,-11
599616327640333824,-87
599616327648021120,-144
599616327655708416,-146
599616327663395840,-158
599616327671083136,-238
599616327678770432,-338
599616327686457728,-420
599616327694145152,-453
599616327701832448,-323
599616327709519744,-33
599616327717207040,127
599616327724894464,-118
599616327732581760,-539
599616327740269056,-664
599616327747956480,-562
599616327755643776,-517
599616327763331072,-531
599616327771018368,-536
599616327778705792,-536
599616327786393088,-539
599616327794080384,-541
599616327801767680,-541
599616327809455104,-541
599616327817142400,-548
599616327824829696,-569
599616327832517120,-579
599616327840204416,-560
599616327847891712,-541
599616327855579008,-534
599616327863266450,-529
599616327870953728,-527
599616327878641024,-522
599616327886328448,-508
599616327894015744,-505
599616327901703040,-501
599616327909390336,-489
599616327917077760,-484
599616327924765056,-482
599616327932452352,-468
599616327940139648,-456
599616327947827072,-456
599616327955514368,-458
599616327963201664,-465
599616327970889088,-463
599616327978576384,-458
599616327986263680,-460
599616327993950976,-463
599616328001638400,-463
599616328009325696,-465
599616328017012992,-456
599616328024700288,-444
599616328032387712,-446
599616328040075008,-444
599616328047762304,-444
599616328055449728,-453
599616328063137024,-446
599616328070824320,-425
599616328078511616,-425
599616328086199040,-430
599616328093886336,-425
599616328101573632,-423
599616328109260928,-418
599616328116948352,-401
599616328124635648,-392
599616328132322944,-387
599616328140010368,-373
599616328147697664,-366
599616328155384960,-364
599616328163072256,-352
599616328170759680,-342
599616328178446976,-342
599616328186134272,-347
599616328193821568,-342
599616328201508992,-323
599616328209196288,-321
599616328216883584,-366
599616328224571008,-423
599616328232258304,-356
599616328239945600,-82
599616328247632896,226
599616328255320320,215
599616328263007616,-184
599616328270694912,-503
599616328278382208,-456
599616328286069632,-323
599616328293756928,-267
599616328301444224,-224
599616328309131648,-208
599616328316818944,-212
599616328324506240,-205
599616328332193536,-196
599616328339880960,-186
599616328347568256,-170
599616328355255552,-158
599616328362942848,-148
599616328370630272,-146
599616328378317568,-144
599616328386004864,-130
599616328393692288,-111
599616328401379584,-106
599616328409066880,-104
599616328416754176,-96
599616328424441604,-92
599616328432129024,-82
599616328439816448,-75
599616328447504000,-70
599616328455191424,-66
599616328462878848,-59
599616328470566400,-52
599616328478253824,-40
599616328485941376,-37
599616328493628800,-40
599616328501316224,-40
599616328509003776,-42
599616328516691200,-47
599616328524378624,-44
599616328532066176,-37
599616328539753600,-33
599616328547441024,-35
599616328555128576,-37
599616328562816000,-26
599616328570503552,-11
599616328578190976,-16
599616328585878400,-18
599616328593565952,-7
599616328601253376,-7
599616328608940800,-9
599616328616628352,4
599616328624315776,14
599616328632003200,11
599616328639690752,9
599616328647378176,11
599616328655065600,14
599616328662753152,33
599616328670440576,68
599616328678128128,85
599616328685815552,78
599616328693502976,73
599616328701190528,82
599616328708877952,87
599616328716565376,89
599616328724252928,96
599616328731940352,106
599616328739627776,118
599616328747315328,118
599616328755002752,68
599616328762690304,14
599616328770377728,104
599616328778065152,408
599616328785752704,704
599616328793440128,628
599616328801127552,210
599616328808815104,-56
599616328816502528,26
599616328824189952,153
599616328831877504,191
599616328839564928,224
599616328847252480,274
599616328854939904,323
599616328862627328,385
599616328870314880,442
599616328878002304,479
599616328885689728,501
599616328893377280,513
599616328901064704,517
599616328908752128,517
599616328916439680,517
599616328924127104,522
599616328931814656,527
599616328939502080,529
599616328947189504,534
599616328954877056,543
599616328962564480,560
599616328970251904,598
599616328977939456,635
599616328985626936,652
599616328993314048,680
599616329001001216,735
599616329008688384,770
599616329016375680,782
599616329024062848,801
599616329031750016,822
599616329039437184,832
599616329047124352,839
599616329054811520,848
599616329062498816,865
599616329070185984,867
599616329077873152,862
599616329085560320,874
599616329093247488,898
599616329100934784,910
599616329108621952,910
599616329116309120,912
599616329123996288,919
599616329131683456,919
599616329139370624,907
599616329147057920,900
599616329154745088,900
599616329162432256,900
599616329170119424,903
599616329177806592,907
599616329185493888,924
599616329193181056,957
599616329200868224,997
599616329208555392,1026
599616329216242560,1035
599616329223929856,1035
599616329231617024,1033
599616329239304192,1028
599616329246991360,1028
599616329254678528,1035
599616329262365696,1037
599616329270052992,1033
599616329277740160,1026
599616329285427328,1007
599616329293114496,940
599616329300801664,879
599616329308488960,971
599616329316176128,1255
599616329323863296,1517
599616329331550464,1437
599616329339237632,1040
599616329346924800,777
599616329354612096,825
599616329362299264,924
599616329369986432,938
599616329377673600,940
599616329385360768,959
599616329393048064,971
599616329400735232,983
599616329408422400,988
599616329416109568,990
599616329423796736,997
599616329431483904,1002
599616329439171200,1018
599616329446858368,1040
599616329454545536,1033
599616329462232704,1035
599616329469919872,1063
599616329477607168,1080
599616329485294336,1087
599616329492981504,1089
599616329500668672,1087
599616329508355840,1104
599616329516043008,1139
599616329523730304,1177
599616329531417472,1215
599616329539104640,1250
599616329546791916,1283
599616329554479488,1307
599616329562167040,1321
599616329569854592,1319
599616329577542144,1304
599616329585229696,1290
599616329592917248,1271
599616329600604672,1252
599616329608292224,1234
599616329615979776,1210
599616329623667328,1184
599616329631354880,1163
599616329639042432,1139
599616329646729984,1106
599616329654417536,1066
599616329662105088,1018
599616329669792640,955
599616329677480064,891
599616329685167616,832
599616329692855168,737
599616329700542720,631
599616329708230272,560
599616329715917824,510
599616329723605376,449
599616329731292928,368
599616329738980480,288
599616329746668032,248
599616329754355584,219
599616329762043008,170
599616329769730560,139
599616329777418112,113
599616329785105664,63
599616329792793216,23
599616329800480768,0
599616329808168320,-40
599616329815855872,-92
599616329823543424,-134
599616329831230976,-212
599616329838918528,-330
599616329846605952,-326
599616329854293504,-82
599616329861981056,148
599616329869668608,14
599616329877356160,-420
599616329885043712,-690
599616329892731264,-676
599616329900418816,-661
599616329908106368,-706
599616329915793920,-725
599616329923481344,-737
599616329931168896,-780
599616329938856448,-834
599616329946544000,-888
599616329954231552,-921
599616329961919104,-933
599616329969606656,-957
599616329977294208,-1000
599616329984981760,-1056
599616329992669312,-1130
599616330000356864,-1200
599616330008044288,-1236
599616330015731840,-1243
599616330023419392,-1252
599616330031106944,-1278
599616330038794496,-1286
599616330046482048,-1255
599616330054169600,-1238
599616330061857152,-1252
599616330069544704,-1257
599616330077232256,-1255
599616330084919808,-1255
599616330092607232,-1238
599616330100294784,-1236
599616330107982335,-1264
599616330115669504,-1276
599616330123356672,-1267
599616330131043712,-1260
599616330138730880,-1252
599616330146418048,-1238
599616330154105088,-1231
599616330161792256,-1224
599616330169479296,-1217
599616330177166464,-1205
599616330184853632,-1184
599616330192540672,-1174
599616330200227840,-1179
599616330207915008,-1182
599616330215602048,-1203
599616330223289216,-1210
599616330230976384,-1179
599616330238663424,-1170
599616330246350592,-1170
599616330254037760,-1151
599616330261724800,-1139
599616330269411968,-1130
599616330277099008,-1096
599616330284786176,-1068
599616330292473344,-1054
599616330300160384,-1052
599616330307847552,-1052
599616330315534720,-1040
599616330323221760,-1023
599616330330908928,-1018
599616330338596096,-1018
599616330346283136,-1018
599616330353970304,-1009
599616330361657344,-1000
599616330369344512,-1042
599616330377031680,-1037
599616330384718720,-815
599616330392405888,-468
599616330400093056,-359
599616330407780096,-687
599616330415467264,-1080
599616330423154432,-1101
599616330430841472,-950
599616330438528640,-874
599616330446215808,-825
599616330453902848,-782
599616330461590016,-770
599616330469277056,-754
599616330476964224,-732
599616330484651392,-723
599616330492338432,-713
599616330500025600,-697
599616330507712768,-678
599616330515399808,-661
599616330523086976,-645
599616330530774144,-631
599616330538461184,-614
599616330546148352,-593
599616330553835392,-574
599616330561522560,-555
599616330569209728,-539
599616330576896768,-531
599616330584583936,-522
599616330592271104,-501
599616330599958144,-477
599616330607645312,-458
599616330615332480,-444
599616330623019520,-439
599616330630706688,-439
599616330638393728,-432
599616330646080896,-425
599616330653768064,-427
599616330661455104,-427
599616330669142232,-418
599616330676829568,-401
599616330684516864,-382
599616330692204288,-366
599616330699891584,-352
599616330707578880,-340
599616330715266176,-316
599616330722953600,-297
599616330730640896,-290
599616330738328192,-286
599616330746015488,-274
599616330753702912,-276
599616330761390208,-274
599616330769077504,-257
599616330776764928,-245
599616330784452224,-248
599616330792139520,-236
599616330799826816,-217
599616330807514240,-198
599616330815201536,-177
599616330822888832,-160
599616330830576128,-160
599616330838263552,-160
599616330845950848,-153
599616330853638144,-148
599616330861325568,-148
599616330869012864,-132
599616330876700160,-108
599616330884387456,-96
599616330892074880,-106
599616330899762176,-151
599616330907449472,-170
599616330915136768,-9
599616330922824192,345
599616330930511488,605
599616330938198784,460
599616330945886208,61
599616330953573504,-104
599616330961260800,30
599616330968948096,158
599616330976635520,212
599616330984322816,276
599616330992010112,323
599616330999697408,352
599616331007384832,392
599616331015072128,420
599616331022759424,427
599616331030446848,444
599616331038134144,468
599616331045821440,482
599616331053508736,482
599616331061196160,491
599616331068883456,508
599616331076570752,513
599616331084258048,513
599616331091945472,517
599616331099632768,536
599616331107320064,567
599616331115007488,598
599616331122694784,638
599616331130382080,676
599616331138069376,690
599616331145756800,704
599616331153444096,737
599616331161131392,761
599616331168818688,763
599616331176506112,770
599616331184193408,791
599616331191880704,806
599616331199568128,827
599616331207255424,843
599616331214942720,853
599616331222630016,872
599616331230317390,895
599616331238004736,900
599616331245692032,900
599616331253379456,898
599616331261066752,879
599616331268754048,867
599616331276441344,867
599616331284128768,860
599616331291816064,846
599616331299503360,834
599616331307190656,829
599616331314878080,825
599616331322565376,820
599616331330252672,820
599616331337940096,827
599616331345627392,843
599616331353314688,853
599616331361001984,848
599616331368689408,841
599616331376376704,846
599616331384064000,853
599616331391751296,862
599616331399438720,884
599616331407126016,900
599616331414813312,898
599616331422500736,898
599616331430188032,874
599616331437875328,820
599616331445562624,860
599616331453250048,1111
599616331460937344,1449
599616331468624640,1548
599616331476311936,1248
599616331483999360,898
599616331491686656,862
599616331499373952,969
599616331507061376,992
599616331514748672,1004
599616331522435968,1042
599616331530123264,1066
599616331537810688,1080
599616331545497984,1099
599616331553185280,1120
599616331560872576,1139
599616331568560000,1146
599616331576247296,1139
599616331583934592,1134
599616331591622016,1137
599616331599309312,1139
599616331606996608,1137
599616331614683904,1132
599616331622371328,1127
599616331630058624,1127
599616331637745920,1125
599616331645433216,1108
599616331653120640,1092
599616331660807936,1089
599616331668495232,1101
599616331676182656,1113
599616331683869952,1120
599616331691557248,1113
599616331699244544,1087
599616331706931968,1056
599616331714619264,1042
599616331722306560,1023
599616331729993856,985
599616331737681280,936
599616331745368576,891
599616331753055872,862
599616331760743296,834
599616331768430592,777
599616331776117888,711
599616331783805184,657
599616331791492544,612
599616331799179776,576
599616331806866944,543
599616331814553984,498
599616331822241152,439
599616331829928320,356
599616331837615360,264
599616331845302528,196
599616331852989568,141
599616331860676736,87
599616331868363904,21
599616331876050944,-42
599616331883738112,-73
599616331891425280,-89
599616331899112320,-125
599616331906799488,-156
599616331914486656,-163
599616331922173696,-191
599616331929860864,-260
599616331937548032,-314
599616331945235072,-349
599616331952922240,-385
599616331960609280,-427
599616331968296448,-524
599616331975983616,-661
599616331983670656,-654
599616331991357824,-423
599616331999044992,-189
599616332006732032,-297
599616332014419200,-770
599616332022106368,-1113
599616332029793408,-1094
599616332037480576,-1023
599616332045167616,-1030
599616332052854784,-1030
599616332060541952,-1044
599616332068228992,-1075
599616332075916160,-1092
599616332083603328,-1111
599616332091290368,-1148
599616332098977536,-1193
599616332106664704,-1245
599616332114351744,-1288
599616332122038912,-1276
599616332129726080,-1255
599616332137413120,-1278
599616332145100288,-1302
599616332152787328,-1302
599616332160474496,-1309
599616332168161664,-1335
599616332175848704,-1359
599616332183535872,-1356
599616332191223040,-1352
599616332198910080,-1345
599616332206597248,-1316
599616332214284416,-1283
599616332221971456,-1264
599616332229658624,-1248
599616332237345664,-1238
599616332245032832,-1243
599616332252720000,-1238
599616332260407040,-1219
599616332268094208,-1208
599616332275781376,-1193
599616332283468416,-1193
599616332291155584,-1203
599616332298842752,-1186
599616332306529792,-1153
599616332314216960,-1139
599616332321904000,-1132
599616332329591168,-1130
599616332337278336,-1120
599616332344965376,-1106
599616332352652441,-1094
599616332360339968,-1087
599616332368027520,-1089
599616332375715072,-1104
599616332383402624,-1106
599616332391090176,-1085
599616332398777728,-1068
599616332406465152,-1059
599616332414152704,-1035
599616332421840256,-1018
599616332429527808,-1011
599616332437215360,-990
599616332444902912,-964
599616332452590464,-955
599616332460278016,-950
599616332467965568,-938
599616332475653120,-921
599616332483340544,-903
599616332491028096,-886
599616332498715648,-907
599616332506403200,-974
599616332514090752,-948
599616332521778304,-692
599616332529465856,-352
599616332537153408,-281
599616332544840960,-643
599616332552528512,-1030
599616332560216064,-1033
599616332567903488,-865
599616332575591040,-777
599616332583278592,-718
599616332590966144,-680
599616332598653696,-680
599616332606341248,-666
599616332614028800,-633
599616332621716352,-614
599616332629403904,-605
599616332637091456,-591
599616332644779008,-579
599616332652466432,-560
599616332660153984,-543
599616332667841536,-524
599616332675529088,-498
599616332683216640,-482
599616332690904192,-472
599616332698591744,-453
599616332706279296,-432
599616332713966848,-425
599616332721654400,-413
599616332729341824,-399
599616332737029376,-390
599616332744716928,-375
599616332752404480,-359
599616332760092032,-352
599616332767779584,-347
599616332775467136,-342
599616332783154688,-352
599616332790842240,-356
599616332798529792,-349
599616332806217344,-340
599616332813904768,-333
599616332821592320,-321
599616332829279872,-307
599616332836967424,-286
599616332844654976,-271
599616332852342528,-267
599616332860030080,-255
599616332867717632,-241
599616332875405184,-241
599616332883092736,-245
599616332890780288,-234
599616332898467712,-222
599616332906155264,-217
599616332913842860,-212
599616332921529984,-205
599616332929217152,-200
599616332936904192,-189
599616332944591360,-172
599616332952278528,-158
599616332959965568,-151
599616332967652736,-146
599616332975339776,-137
599616332983026944,-127
599616332990714112,-120
599616332998401152,-111
599616333006088320,-104
599616333013775488,-92
599616333021462528,-68
599616333029149696,-78
599616333036836864,-141
599616333044523904,-174
599616333052211072,-18
599616333059898240,340
599616333067585280,626
599616333075272448,482
599616333082959488,44
599616333090646656,-158
599616333098333824,-33
599616333106020864,92
599616333113708032,127
599616333121395200,177
599616333129082240,224
599616333136769408,248
599616333144456576,276
599616333152143616,316
599616333159830784,340
599616333167517824,371
599616333175204992,416
599616333182892160,442
599616333190579200,453
599616333198266368,468
599616333205953536,479
599616333213640576,482
599616333221327744,487
599616333229014912,491
599616333236701952,501
599616333244389120,520
599616333252076288,546
599616333259763328,579
599616333267450496,621
599616333275137536,664
599616333282824704,690
599616333290511872,709
599616333298198912,723
599616333305886080,728
599616333313573248,728
599616333321260288,737
599616333328947456,754
599616333336634624,768
599616333344321664,768
599616333352008832,765
599616333359695872,777
599616333367383040,791
599616333375070208,796
599616333382757248,796
599616333390444416,791
599616333398131584,787
599616333405818624,775
599616333413505792,763
599616333421192960,758
599616333428880000,754
599616333436567168,747
599616333444254208,737
599616333451941376,725
599616333459628544,721
599616333467315584,721
599616333475002757,718
599616333482690048,711
599616333490377344,721
599616333498064512,728
599616333505751808,728
599616333513439104,732
599616333521126400,737
599616333528813568,747
599616333536500864,765
599616333544188160,780
599616333551875456,796
599616333559562624,825
599616333567249920,813
599616333574937216,749
599616333582624384,718
599616333590311680,851
599616333597998976,1167
599616333605686272,1413
599616333613373440,1264
599616333621060736,851
599616333628748032,643
599616333636435328,723
599616333644122496,815
599616333651809792,829
599616333659497088,841
599616333667184256,860
599616333674871552,865
599616333682558848,867
599616333690246144,881
599616333697933312,888
599616333705620608,884
599616333713307904,893
599616333720995200,907
599616333728682368,905
599616333736369664,900
599616333744056960,905
599616333751744128,907
599616333759431424,926
599616333767118720,957
599616333774806016,978
599616333782493184,992
599616333790180480,1028
599616333797867776,1101
599616333805555072,1193
599616333813242240,1276
599616333820929536,1330
599616333828616832,1368
599616333836304128,1401
599616333843991296,1425
599616333851678592,1449
599616333859365888,1472
599616333867053056,1475
599616333874740352,1468
599616333882427648,1468
599616333890114944,1456
599616333897802112,1432
599616333905489408,1411
599616333913176704,1394
599616333920864000,1375
599616333928551168,1354
599616333936238464,1319
599616333943925760,1283
599616333951612928,1260
599616333959300224,1234
599616333966987520,1196
599616333974674816,1144
599616333982361984,1087
599616333990049280,1040
599616333997736576,995
599616334005423872,950
599616334013111040,921
599616334020798336,893
599616334028485632,846
599616334036172828,763
599616334043860224,650
599616334051547648,548
599616334059235072,494
599616334066922368,458
599616334074609792,408
599616334082297216,335
599616334089984640,243
599616334097672064,160
599616334105359488,78
599616334113046784,-28
599616334120734208,-141
599616334128421632,-158
599616334136109056,40
599616334143796480,307
599616334151483776,250
599616334159171200,-174
599616334166858624,-501
599616334174546048,-498
599616334182233472,-432
599616334189920896,-446
599616334197608192,-484
599616334205295616,-536
599616334212983040,-609
599616334220670464,-654
599616334228357888,-666
599616334236045184,-692
599616334243732608,-751
599616334251420032,-810
599616334259107456,-869
599616334266794880,-936
599616334274482304,-992
599616334282169600,-1047
599616334289857024,-1094
599616334297544448,-1115
599616334305231872,-1130
599616334312919296,-1144
599616334320606592,-1158
599616334328294016,-1174
599616334335981440,-1179
599616334343668864,-1174
599616334351356288,-1186
599616334359043584,-1205
599616334366731008,-1219
599616334374418432,-1257
599616334382105856,-1307
599616334389793280,-1335
599616334397480704,-1338
599616334405168000,-1342
599616334412855424,-1361
599616334420542848,-1378
599616334428230272,-1392
599616334435917696,-1404
599616334443604992,-1406
599616334451292416,-1411
599616334458979840,-1430
599616334466667264,-1430
599616334474354688,-1425
599616334482042112,-1435
599616334489729408,-1435
599616334497416832,-1413
599616334505104256,-1413
599616334512791680,-1423
599616334520479104,-1420
599616334528166400,-1418
599616334535853824,-1413
599616334543541248,-1394
599616334551228672,-1368
599616334558916096,-1345
599616334566603520,-1323
599616334574290816,-1302
599616334581978240,-1283
599616334589665664,-1264
599616334597353069,-1252
599616334605040256,-1243
599616334612727424,-1229
599616334620414464,-1208
599616334628101632,-1186
599616334635788800,-1163
599616334643475840,-1156
599616334651163008,-1179
599616334658850048,-1229
599616334666537216,-1212
599616334674224384,-990
599616334681911424,-652
599616334689598592,-560
599616334697285760,-905
599616334704972800,-1304
599616334712659968,-1347
599616334720347136,-1193
599616334728034176,-1073
599616334735721344,-1004
599616334743408512,-974
599616334751095552,-952
599616334758782720,-921
599616334766469760,-898
599616334774156928,-874
599616334781844096,-855
599616334789531136,-839
599616334797218304,-813
599616334804905472,-789
599616334812592512,-773
599616334820279680,-749
599616334827966848,-728
599616334835653888,-709
599616334843341056,-687
599616334851028096,-671
599616334858715264,-657
599616334866402432,-638
599616334874089472,-621
599616334881776640,-607
599616334889463808,-595
599616334897150848,-576
599616334904838016,-546
599616334912525184,-527
599616334920212224,-531
599616334927899392,-531
599616334935586560,-522
599616334943273600,-517
599616334950960768,-510
599616334958647808,-498
599616334966334976,-494
599616334974022144,-487
599616334981709184,-468
599616334989396352,-453
599616334997083520,-442
599616335004770560,-420
599616335012457728,-408
599616335020144896,-399
599616335027831936,-380
599616335035519104,-366
599616335043206144,-354
599616335050893312,-342
599616335058580480,-333
599616335066267520,-323
599616335073954688,-314
599616335081641856,-307
599616335089328896,-297
599616335097016064,-278
599616335104703232,-264
599616335112390272,-252
599616335120077440,-243
599616335127764480,-241
599616335135451648,-234
599616335143138816,-226
599616335150825856,-226
599616335158512966,-219
599616335166200576,-203
599616335173888128,-186
599616335181575680,-170
599616335189263232,-186
599616335196950784,-257
599616335204638336,-300
599616335212325760,-153
599616335220013312,200
599616335227700864,465
599616335235388416,283
599616335243075968,-174
599616335250763520,-364
599616335258451072,-226
599616335266138624,-108
599616335273826176,-68
599616335281513728,-26
599616335289201152,9
599616335296888704,33
599616335304576256,54
599616335312263808,63
599616335319951360,75
599616335327638912,101
599616335335326464,130
599616335343014016,170
599616335350701568,217
599616335358389120,245
599616335366076672,262
599616335373764096,281
599616335381451648,302
599616335389139200,330
599616335396826752,364
599616335404514304,399
599616335412201856,444
599616335419889408,489
599616335427576960,513
599616335435264512,539
599616335442952064,574
599616335450639616,598
599616335458327040,602
599616335466014592,607
599616335473702144,619
599616335481389696,638
599616335489077248,659
599616335496764800,687
599616335504452352,711
599616335512139904,709
599616335519827456,697
599616335527515008,699
599616335535202432,697
599616335542889984,690
599616335550577536,685
599616335558265088,671
599616335565952640,661
599616335573640192,659
599616335581327744,645
599616335589015296,628
599616335596702848,617
599616335604390400,607
599616335612077952,595
599616335619765376,583
599616335627452928,581
599616335635140480,591
599616335642828032,598
599616335650515584,609
599616335658203136,619
599616335665890688,621
599616335673578240,621
599616335681265792,624
599616335688953344,619
599616335696640768,607
599616335704328320,602
599616335712015872,598
599616335719703381,595
599616335727390976,595
599616335735078528,557
599616335742766080,482
599616335750453632,491
599616335758141184,706
599616335765828736,1042
599616335773516160,1170
599616335781203712,888
599616335788891264,515
599616335796578816,427
599616335804266368,520
599616335811953920,569
599616335819641472,579
599616335827329024,591
599616335835016576,595
599616335842704128,595
599616335850391552,617
599616335858079104,643
599616335865766656,657
599616335873454208,661
599616335881141760,678
599616335888829312,695
599616335896516864,695
599616335904204416,709
599616335911891968,744
599616335919579520,775
599616335927267072,789
599616335934954496,801
599616335942642048,817
599616335950329600,841
599616335958017152,860
599616335965704704,877
599616335973392256,898
599616335981079808,921
599616335988767360,957
599616335996454912,1014
599616336004142464,1085
599616336011830016,1170
599616336019517440,1250
599616336027204992,1302
599616336034892544,1342
599616336042580096,1390
599616336050267648,1449
599616336057955200,1503
599616336065642752,1524
599616336073330304,1529
599616336081017856,1553
599616336088705408,1557
599616336096392832,1536
599616336104080384,1531
599616336111767936,1527
599616336119455488,1498
599616336127143040,1470
599616336134830592,1456
599616336142518144,1432
599616336150205696,1409
599616336157893248,1387
599616336165580800,1352
599616336173268352,1314
599616336180955776,1293
599616336188643328,1276
599616336196330880,1260
599616336204018432,1234
599616336211705984,1193
599616336219393536,1144
599616336227081088,1092
599616336234768640,1042
599616336242456192,985
599616336250143744,921
599616336257831296,874
599616336265518720,825
599616336273206272,768
599616336280893800,683
599616336288580992,572
599616336296268160,562
599616336303955200,775
599616336311642368,1009
599616336319329536,893
599616336327016576,439
599616336334703744,70
599616336342390784,-9
599616336350077952,21
599616336357765120,-4
599616336365452160,-82
599616336373139328,-153
599616336380826496,-182
599616336388513536,-205
599616336396200704,-255
599616336403887872,-316
599616336411574912,-349
599616336419262080,-371
599616336426949248,-397
599616336434636288,-446
599616336442323456,-517
599616336450010496,-583
599616336457697664,-635
599616336465384832,-706
599616336473071872,-784
599616336480759040,-862
599616336488446208,-938
599616336496133248,-983
599616336503820416,-1002
599616336511507584,-1026
599616336519194624,-1042
599616336526881792,-1044
599616336534568832,-1049
599616336542256000,-1078
599616336549943168,-1111
599616336557630208,-1144
599616336565317376,-1182
599616336573004544,-1215
599616336580691584,-1241
599616336588378752,-1288
599616336596065920,-1359
599616336603752960,-1392
599616336611440128,-1380
599616336619127296,-1401
599616336626814336,-1446
599616336634501504,-1465
599616336642188544,-1484
599616336649875712,-1517
599616336657562880,-1534
599616336665249920,-1543
599616336672937088,-1569
599616336680624256,-1576
599616336688311296,-1562
599616336695998464,-1557
599616336703685632,-1562
599616336711372672,-1569
599616336719059840,-1581
599616336726746880,-1565
599616336734434048,-1534
599616336742121216,-1524
599616336749808256,-1527
599616336757495424,-1513
599616336765182592,-1484
599616336772869632,-1463
599616336780556800,-1442
599616336788243968,-1413
599616336795931008,-1378
599616336803618176,-1349
599616336811305216,-1342
599616336818992384,-1364
599616336826679552,-1413
599616336834366592,-1387
599616336842053697,-1141
599616336849741056,-799
599616336857428352,-730
599616336865115520,-1089
599616336872802816,-1458
599616336880490112,-1458
599616336888177408,-1309
599616336895864576,-1234
599616336903551872,-1179
599616336911239168,-1153
599616336918926464,-1144
599616336926613632,-1096
599616336934300928,-1044
599616336941988224,-1023
599616336949675392,-1000
599616336957362688,-964
599616336965049984,-943
599616336972737280,-921
599616336980424448,-891
599616336988111744,-869
599616336995799040,-848
599616337003486336,-820
599616337011173504,-794
599616337018860800,-768
599616337026548096,-742
599616337034235264,-723
599616337041922560,-709
599616337049609856,-687
599616337057297152,-666
599616337064984320,-645
599616337072671616,-624
599616337080358912,-607
599616337088046208,-595
599616337095733376,-593
599616337103420672,-595
599616337111107968,-583
599616337118795136,-560
599616337126482432,-541
599616337134169728,-524
599616337141857024,-513
599616337149544192,-498
599616337157231488,-479
599616337164918784,-458
599616337172606080,-442
599616337180293248,-427
599616337187980544,-418
599616337195667840,-408
599616337203355136,-394
599616337211042304,-382
599616337218729600,-373
599616337226416896,-364
599616337234104064,-349
599616337241791360,-338
599616337249478656,-333
599616337257165952,-321
599616337264853120,-300
599616337272540416,-278
599616337280227712,-255
599616337287915008,-245
599616337295602176,-248
599616337303289472,-243
599616337310976768,-231
599616337318663936,-224
599616337326351232,-210
599616337334038528,-179
599616337341725824,-148
599616337349412992,-115
599616337357100288,-106
599616337364787584,-158
599616337372474880,-182
599616337380162048,4
599616337387849344,390
599616337395536640,645
599616337403223768,456
599616337410911232,37
599616337418598656,-106
599616337426286080,42
599616337433973376,160
599616337441660800,205
599616337449348224,260
599616337457035648,286
599616337464723072,286
599616337472410496,330
599616337480097792,387
599616337487785216,406
599616337495472640,418
599616337503160064,439
599616337510847488,444
599616337518534784,451
599616337526222208,465
599616337533909632,470
599616337541597056,477
599616337549284480,491
599616337556971904,494
599616337564659200,491
599616337572346624,496
599616337580034048,505
599616337587721472,550
599616337595408896,605
599616337603096192,624
599616337610783616,638
599616337618471040,654
599616337626158464,666
599616337633845888,683
599616337641533312,706
599616337649220608,725
599616337656908032,747
599616337664595456,765
599616337672282880,770
599616337679970304,763
599616337687657600,761
599616337695345024,761
599616337703032448,758
599616337710719872,756
599616337718407296,751
599616337726094592,744
599616337733782016,737
599616337741469440,730
599616337749156864,718
599616337756844288,709
599616337764531712,697
599616337772219008,685
599616337779906432,680
599616337787593856,683
599616337795281280,692
599616337802968704,702
599616337810656000,706
599616337818343424,711
599616337826030848,704
599616337833718272,690
599616337841405696,692
599616337849093120,704
599616337856780416,706
599616337864467840,704
599616337872155264,709
599616337879842688,713
599616337887530112,713
599616337895217408,711
599616337902904832,666
599616337910592256,600
599616337918279680,683
599616337925967104,992
599616337933654528,1307
599616337941341824,1267
599616337949029248,891
599616337956716672,635
599616337964404009,690
599616337972091392,796
599616337979778816,813
599616337987466240,817
599616337995153536,827
599616338002840960,820
599616338010528384,877
599616338018215808,1059
599616338025903232,1066
599616338033590656,813
599616338041277952,751
599616338048965376,848
599616338056652800,810
599616338064340224,765
599616338072027648,796
599616338079714944,801
599616338087402368,777
599616338095089792,775
599616338102777216,784
599616338110464640,794
599616338118152064,815
599616338125839360,841
599616338133526784,867
599616338141214208,893
599616338148901632,926
599616338156589056,969
599616338164276352,1000
599616338171963776,1026
599616338179651200,1059
599616338187338624,1092
599616338195026048,1148
599616338202713472,1222
599616338210400768,1274
599616338218088192,1295
599616338225775616,1309
599616338233463040,1330
599616338241150464,1352
599616338248837760,1354
599616338256525184,1345
599616338264212608,1335
599616338271900032,1323
599616338279587456,1319
599616338287274880,1312
599616338294962176,1293
599616338302649600,1281
599616338310337024,1276
599616338318024448,1248
599616338325711872,1215
599616338333399168,1200
599616338341086592,1189
599616338348774016,1165
599616338356461440,1148
599616338364148864,1132
599616338371836288,1099
599616338379523584,1056
599616338387211008,1014
599616338394898432,971
599616338402585856,926
599616338410273280,884
599616338417960576,855
599616338425648000,820
599616338433335424,758
599616338441022848,664
599616338448710272,531
599616338456397568,449
599616338464084992,560
599616338471772416,817
599616338479459840,914
599616338487147264,621
599616338494834688,186
599616338502521984,9
599616338510209408,28
599616338517896832,11
599616338525584254,-33
599616338533271552,-49
599616338540958848,-82
599616338548646016,-139
599616338556333312,-215
599616338564020608,-307
599616338571707904,-364
599616338579395072,-385
599616338587082368,-425
599616338594769664,-458
599616338602456960,-482
599616338610144128,-522
599616338617831424,-576
599616338625518720,-635
599616338633205888,-704
599616338640893184,-751
599616338648580480,-787
599616338656267776,-846
599616338663954944,-895
599616338671642240,-910
599616338679329536,-919
599616338687016832,-926
599616338694704000,-940
599616338702391296,-995
599616338710078592,-1066
599616338717765760,-1120
599616338725453056,-1170
599616338733140352,-1208
599616338740827648,-1229
599616338748514816,-1248
599616338756202112,-1255
599616338763889408,-1269
599616338771576704,-1286
599616338779263872,-1271
599616338786951168,-1267
599616338794638464,-1319
599616338802325632,-1401
599616338810012928,-1456
599616338817700224,-1461
599616338825387520,-1453
599616338833074688,-1463
599616338840761984,-1484
599616338848449280,-1501
599616338856136576,-1513
599616338863823744,-1527
599616338871511040,-1546
599616338879198336,-1574
599616338886885504,-1595
599616338894572800,-1595
599616338902260096,-1579
599616338909947392,-1569
599616338917634560,-1567
599616338925321856,-1581
599616338933009152,-1593
599616338940696448,-1572
599616338948383616,-1548
599616338956070912,-1548
599616338963758208,-1541
599616338971445376,-1524
599616338979132672,-1527
599616338986819968,-1586
599616338994507264,-1621
599616339002194432,-1468
599616339009881728,-1125
599616339017569024,-898
599616339025256320,-1106
599616339032943488,-1550
599616339040630784,-1685
599616339048318080,-1522
599616339056005376,-1399
599616339063692544,-1335
599616339071379840,-1281
599616339079067136,-1269
599616339086754321,-1252
599616339094441856,-1212
599616339102129408,-1189
599616339109816960,-1170
599616339117504512,-1151
599616339125192064,-1146
599616339132879616,-1125
599616339140567040,-1082
599616339148254592,-1063
599616339155942144,-1054
599616339163629696,-1030
599616339171317248,-1000
599616339179004800,-964
599616339186692352,-936
599616339194379904,-917
599616339202067456,-900
599616339209755008,-886
599616339217442432,-872
599616339225129984,-839
599616339232817536,-806
599616339240505088,-796
599616339248192640,-787
599616339255880192,-775
599616339263567744,-763
599616339271255296,-749
599616339278942848,-739
599616339286630400,-735
599616339294317952,-721
599616339302005376,-709
599616339309692928,-697
599616339317380480,-676
599616339325068032,-654
599616339332755584,-640
599616339340443136,-621
599616339348130688,-609
599616339355818240,-600
599616339363505792,-581
599616339371193344,-569
599616339378880896,-567
599616339386568320,-557
599616339394255872,-550
599616339401943424,-543
599616339409630976,-527
599616339417318528,-515
599616339425006080,-513
599616339432693632,-498
599616339440381184,-468
599616339448068736,-453
599616339455756288,-451
599616339463443712,-446
599616339471131264,-434
599616339478818816,-420
599616339486506368,-416
599616339494193920,-408
599616339501881472,-390
599616339509569024,-382
599616339517256576,-411
599616339524944128,-477
599616339532631680,-472
599616339540319232,-243
599616339548006656,113
599616339555694208,210
599616339563381760,-139
599616339571069312,-539
599616339578756864,-567
599616339586444416,-413
599616339594131968,-333
599616339601819520,-290
599616339609507072,-262
599616339617194624,-260
599616339624882176,-252
599616339632569600,-231
599616339640257152,-217
599616339647944740,-210
599616339655631872,-200
599616339663319040,-189
599616339671006208,-179
599616339678693504,-165
599616339686380672,-148
599616339694067840,-137
599616339701755008,-127
599616339709442176,-127
599616339717129344,-127
599616339724816640,-113
599616339732503808,-96
599616339740190976,-87
599616339747878144,-68
599616339755565312,-37
599616339763252608,-11
599616339770939776,7
599616339778626944,28
599616339786314112,54
599616339794001280,89
599616339801688448,115
599616339809375744,130
599616339817062912,148
599616339824750080,170
599616339832437248,186
599616339840124416,198
599616339847811712,210
599616339855498880,224
599616339863186048,238
599616339870873216,243
599616339878560384,243
599616339886247680,250
599616339893934848,252
599616339901622016,250
599616339909309184,257
599616339916996352,257
599616339924683520,245
599616339932370816,243
599616339940057984,252
599616339947745152,260
599616339955432320,262
599616339963119488,276
599616339970806784,312
599616339978493952,330
599616339986181120,323
599616339993868288,323
599616340001555456,342
599616340009242624,366
599616340016929920,375
599616340024617088,387
599616340032304256,404
599616340039991424,411
599616340047678592,392
599616340055365888,333
599616340063053056,267
599616340070740224,319
599616340078427392,600
599616340086114560,936
599616340093801728,940
599616340101489024,557
599616340109176192,238
599616340116863360,257
599616340124550528,359
599616340132237696,364
599616340139924992,368
599616340147612160,394
599616340155299328,413
599616340162986496,434
599616340170673664,449
599616340178360960,437
599616340186048128,432
599616340193735296,439
599616340201422464,446
599616340209109724,446
599616340216797184,439
599616340224484608,430
599616340232172160,430
599616340239859584,437
599616340247547008,442
599616340255234560,434
599616340262921984,425
599616340270609536,432
599616340278296960,449
599616340285984384,468
599616340293671936,496
599616340301359360,517
599616340309046784,529
599616340316734336,560
599616340324421760,583
599616340332109184,595
599616340339796736,635
599616340347484160,673
599616340355171712,676
599616340362859136,683
599616340370546560,713
599616340378234112,737
599616340385921536,747
599616340393608960,758
599616340401296512,780
599616340408983936,796
599616340416671360,803
599616340424358912,810
599616340432046336,817
599616340439733760,801
599616340447421312,791
599616340455108736,796
599616340462796288,791
599616340470483712,784
599616340478171136,787
599616340485858688,780
599616340493546112,782
599616340501233536,808
599616340508921088,825
599616340516608512,827
599616340524295936,834
599616340531983488,841
599616340539670912,843
599616340547358464,851
599616340555045888,860
599616340562733312,860
599616340570420864,860
599616340578108288,865
599616340585795712,872
599616340593483264,848
599616340601170688,803
599616340608858112,886
599616340616545664,1203
599616340624233088,1548
599616340631920640,1546
599616340639608064,1198
599616340647295488,959
599616340654983040,1042
599616340662670464,1222
599616340670357888,1326
599616340678045440,1378
599616340685732864,1418
599616340693420288,1444
599616340701107840,1465
599616340708795264,1477
599616340716482688,1468
599616340724170240,1446
599616340731857664,1420
599616340739545216,1392
599616340747232640,1356
599616340754920064,1321
599616340762607616,1297
599616340770295052,1269
599616340777982592,1231
599616340785670144,1208
599616340793357696,1184
599616340801045248,1146
599616340808732800,1108
599616340816420352,1063
599616340824107776,988
599616340831795328,917
599616340839482880,881
599616340847170432,813
599616340854857984,713
599616340862545536,652
599616340870233088,602
599616340877920640,522
599616340885608192,425
599616340893295744,338
599616340900983168,269
599616340908670720,208
599616340916358272,158
599616340924045824,120
599616340931733376,75
599616340939420928,21
599616340947108480,-33
599616340954796032,-78
599616340962483584,-139
599616340970171136,-215
599616340977858688,-260
599616340985546112,-304
599616340993233664,-380
599616341000921216,-430
599616341008608768,-446
599616341016296320,-479
599616341023983872,-534
599616341031671424,-609
599616341039358976,-697
599616341047046528,-744
599616341054734080,-791
599616341062421632,-888
599616341070109056,-962
599616341077796608,-971
599616341085484160,-1011
599616341093171712,-1096
599616341100859264,-1153
599616341108546816,-1186
599616341116234368,-1217
599616341123921920,-1257
599616341131609472,-1333
599616341139297024,-1409
599616341146984448,-1349
599616341154672000,-1094
599616341162359552,-839
599616341170047104,-957
599616341177734656,-1390
599616341185422208,-1624
599616341193109760,-1531
599616341200797312,-1427
599616341208484864,-1387
599616341216172416,-1345
599616341223859968,-1319
599616341231547392,-1309
599616341239234944,-1293
599616341246922496,-1274
599616341254610048,-1248
599616341262297600,-1224
599616341269985152,-1217
599616341277672704,-1224
599616341285360256,-1226
599616341293047808,-1208
599616341300735360,-1182
599616341308422784,-1170
599616341316110336,-1165
599616341323797888,-1153
599616341331485467,-1158
599616341339172864,-1170
599616341346860288,-1151
599616341354547712,-1130
599616341362235008,-1127
599616341369922432,-1118
599616341377609856,-1104
599616341385297280,-1092
599616341392984704,-1073
599616341400672128,-1054
599616341408359424,-1044
599616341416046848,-1047
599616341423734272,-1044
599616341431421696,-1030
599616341439109120,-1023
599616341446796416,-1035
599616341454483840,-1030
599616341462171264,-1014
599616341469858688,-1011
599616341477546112,-997
599616341485233536,-974
599616341492920832,-974
599616341500608256,-969
599616341508295680,-957
599616341515983104,-952
599616341523670528,-948
599616341531357824,-943
599616341539045248,-962
599616341546732672,-981
599616341554420096,-971
599616341562107520,-955
599616341569794944,-948
599616341577482240,-933
599616341585169664,-919
599616341592857088,-914
599616341600544512,-914
599616341608231936,-907
599616341615919232,-891
599616341623606656,-869
599616341631294080,-862
599616341638981504,-862
599616341646668928,-853
599616341654356352,-843
599616341662043648,-869
599616341669731072,-929
599616341677418496,-905
599616341685105920,-661
599616341692793344,-314
599616341700480640,-234
599616341708168064,-600
599616341715855488,-985
599616341723542912,-976
599616341731230336,-808
599616341738917760,-737
599616341746605056,-690
599616341754292480,-654
599616341761979904,-643
599616341769667328,-628
599616341777354752,-607
599616341785042048,-593
599616341792729472,-583
599616341800416896,-572
599616341808104320,-555
599616341815791744,-541
599616341823479040,-527
599616341831166464,-515
599616341838853888,-501
599616341846541312,-482
599616341854228736,-463
599616341861916160,-449
599616341869603456,-444
599616341877290880,-437
599616341884978304,-427
599616341892665712,-413
599616341900353024,-394
599616341908040320,-375
599616341915727488,-361
599616341923414784,-342
599616341931102080,-326
599616341938789376,-323
599616341946476544,-323
599616341954163840,-326
599616341961851136,-328
599616341969538432,-304
599616341977225600,-281
599616341984912896,-276
599616341992600192,-267
599616342000287360,-255
599616342007974656,-252
599616342015661952,-245
599616342023349248,-224
599616342031036416,-205
599616342038723712,-196
599616342046411008,-191
599616342054098304,-184
599616342061785472,-170
599616342069472768,-156
599616342077160064,-151
599616342084847232,-144
599616342092534528,-125
599616342100221824,-94
599616342107909120,-56
599616342115596288,-18
599616342123283584,2
599616342130970880,11
599616342138658176,26
599616342146345344,47
599616342154032640,78
599616342161719936,104
599616342169407104,127
599616342177094400,163
599616342184781696,205
599616342192468992,219
599616342200156160,172
599616342207843456,134
599616342215530752,274
599616342223218048,626
599616342230905216,919
599616342238592512,799
599616342246279808,375
599616342253966976,158
599616342261654272,252
599616342269341568,361
599616342277028864,392
599616342284716032,430
599616342292403328,458
599616342300090624,468
599616342307777920,477
599616342315465088,491
599616342323152384,498
599616342330839680,508
599616342338526848,524
599616342346214144,541
599616342353901440,541
599616342361588736,546
599616342369275904,557
599616342376963200,562
599616342384650496,569
599616342392337792,586
599616342400024960,595
599616342407712256,614
599616342415399552,669
599616342423086848,709
599616342430774016,723
599616342438461312,751
599616342446148608,794
599616342453835779,817
599616342461523328,832
599616342469210880,855
599616342476898432,877
599616342484585984,881
599616342492273536,877
599616342499961088,879
599616342507648512,886
599616342515336064,895
599616342523023616,929
599616342530711168,964
599616342538398720,971
599616342546086272,974
599616342553773824,981
599616342561461376,976
599616342569148928,971
599616342576836480,969
599616342584523904,959
599616342592211456,952
599616342599899008,948
599616342607586560,933
599616342615274112,919
599616342622961664,910
599616342630649216,907
599616342638336768,914
599616342646024320,921
599616342653711872,929
599616342661399424,933
599616342669086848,945
599616342676774400,959
599616342684461952,966
599616342692149504,971
599616342699837056,974
599616342707524608,976
599616342715212160,983
599616342722899712,983
599616342730587264,955
599616342738274816,903
599616342745962368,888
599616342753649792,1056
599616342761337344,1394
599616342769024896,1609
599616342776712448,1427
599616342784400000,1056
599616342792087552,921
599616342799775104,1021
599616342807462656,1082
599616342815150208,1078
599616342822837760,1101
599616342830525184,1167
599616342838212736,1243
599616342845900288,1309
599616342853587840,1347
599616342861275392,1371
599616342868962944,1392
599616342876650496,1394
599616342884338048,1375
599616342892025600,1364
599616342899713152,1359
599616342907400704,1347
599616342915088128,1326
599616342922775680,1302
599616342930463232,1278
599616342938150784,1262
599616342945838336,1260
599616342953525888,1257
599616342961213440,1252
599616342968900992,1248
599616342976588544,1238
599616342984276096,1226
599616342991963520,1215
599616342999651072,1203
599616343007338624,1191
599616343015026194,1170
599616343022713344,1139
599616343030400512,1111
599616343038087680,1078
599616343045774976,1040
599616343053462144,1000
599616343061149312,948
599616343068836480,881
599616343076523648,829
599616343084210816,784
599616343091898112,723
599616343099585280,661
599616343107272448,595
599616343114959616,515
599616343122646784,453
599616343130334080,399
599616343138021248,333
599616343145708416,252
599616343153395584,179
599616343161082752,130
599616343168770048,87
599616343176457216,35
599616343184144384,-4
599616343191831552,-30
599616343199518720,-75
599616343207205888,-118
599616343214893184,-148
599616343222580352,-189
599616343230267520,-226
599616343237954688,-245
599616343245641856,-276
599616343253329152,-333
599616343261016320,-390
599616343268703488,-446
599616343276390656,-548
599616343284077824,-640
599616343291764992,-609
599616343299452288,-418
599616343307139456,-236
599616343314826624,-397
599616343322513792,-877
599616343330200960,-1151
599616343337888256,-1087
599616343345575424,-1009
599616343353262592,-1009
599616343360949760,-1000
599616343368636928,-1000
599616343376324096,-1018
599616343384011392,-1035
599616343391698560,-1068
599616343399385728,-1115
599616343407072896,-1151
599616343414760064,-1163
599616343422447360,-1167
599616343430134528,-1200
599616343437821696,-1257
599616343445508864,-1283
599616343453196032,-1278
599616343460883328,-1286
599616343468570496,-1323
599616343476257664,-1338
599616343483944832,-1316
599616343491632000,-1312
599616343499319168,-1335
599616343507006464,-1335
599616343514693632,-1342
599616343522380800,-1404
599616343530067968,-1451
599616343537755136,-1444
599616343545442432,-1446
599616343553129600,-1475
599616343560816768,-1496
599616343568503936,-1539
599616343576191182,-1624
599616343583878656,-1673
599616343591566080,-1669
599616343599253632,-1650
599616343606941056,-1645
599616343614628480,-1647
599616343622316032,-1652
599616343630003456,-1657
599616343637691008,-1659
599616343645378432,-1664
599616343653065856,-1654
599616343660753408,-1635
599616343668440832,-1631
599616343676128256,-1617
599616343683815808,-1583
599616343691503232,-1562
599616343699190656,-1550
599616343706878208,-1529
599616343714565632,-1503
599616343722253184,-1470
599616343729940608,-1437
599616343737628032,-1411
599616343745315584,-1390
599616343753003008,-1371
599616343760690432,-1359
599616343768377984,-1345
599616343776065408,-1326
599616343783752832,-1300
599616343791440384,-1269
599616343799127808,-1248
599616343806815232,-1238
599616343814502784,-1262
599616343822190208,-1304
599616343829877760,-1222
599616343837565184,-914
599616343845252608,-609
599616343852940160,-704
599616343860627584,-1158
599616343868315008,-1411
599616343876002560,-1274
599616343883689984,-1115
599616343891377408,-1054
599616343899064960,-992
599616343906752384,-955
599616343914439936,-945
599616343922127360,-924
599616343929814784,-895
599616343937502336,-881
599616343945189760,-867
599616343952877184,-843
599616343960564736,-822
599616343968252160,-810
599616343975939584,-799
599616343983627136,-787
599616343991314560,-761
599616343999002112,-732
599616344006689536,-713
599616344014376960,-692
599616344022064512,-678
599616344029751936,-680
599616344037439360,-678
599616344045126912,-659
599616344052814336,-643
599616344060501760,-628
599616344068189312,-614
599616344075876736,-607
599616344083564160,-600
599616344091251712,-595
599616344098939136,-600
599616344106626688,-600
599616344114314112,-588
599616344122001536,-574
599616344129689088,-565
599616344137376510,-555
599616344145063680,-560
599616344152750848,-567
599616344160437888,-562
599616344168125056,-557
599616344175812224,-553
599616344183499264,-546
599616344191186432,-548
599616344198873472,-550
599616344206560640,-555
599616344214247808,-560
599616344221934848,-548
599616344229622016,-541
599616344237309184,-541
599616344244996224,-527
599616344252683392,-513
599616344260370560,-508
599616344268057600,-496
599616344275744768,-491
599616344283431936,-491
599616344291118976,-496
599616344298806144,-498
599616344306493184,-494
599616344314180352,-484
599616344321867520,-479
599616344329554560,-472
599616344337241728,-468
599616344344928896,-498
599616344352615936,-567
599616344360303104,-574
599616344367990272,-385
599616344375677312,-49
599616344383364480,85
599616344391051520,-255
599616344398738688,-704
599616344406425856,-751
599616344414112896,-576
599616344421800064,-494
599616344429487232,-453
599616344437174272,-425
599616344444861440,-423
599616344452548608,-418
599616344460235648,-408
599616344467922816,-404
599616344475609984,-392
599616344483297024,-392
599616344490984192,-411
599616344498671232,-401
599616344506358400,-375
599616344514045568,-373
599616344521732608,-382
599616344529419776,-371
599616344537106944,-345
599616344544793984,-330
599616344552481152,-330
599616344560168320,-340
599616344567855360,-342
599616344575542528,-338
599616344583229568,-349
599616344590916736,-352
599616344598603904,-338
599616344606290944,-338
599616344613978112,-335
599616344621665280,-326
599616344629352320,-333
599616344637039488,-347
599616344644726656,-340
599616344652413696,-338
599616344660100864,-354
599616344667787904,-347
599616344675475072,-321
599616344683162240,-326
599616344690849280,-340
599616344698536407,-328
599616344706223872,-319
599616344713911296,-328
599616344721598720,-330
599616344729286016,-321
599616344736973440,-328
599616344744660864,-335
599616344752348288,-328
599616344760035712,-333
599616344767723136,-330
599616344775410432,-316
599616344783097856,-316
599616344790785280,-316
599616344798472704,-307
599616344806160128,-295
599616344813847424,-302
599616344821534848,-326
599616344829222272,-333
599616344836909696,-338
599616344844597120,-340
599616344852284544,-326
599616344859971840,-326
599616344867659264,-338
599616344875346688,-361
599616344883034112,-413
599616344890721536,-437
599616344898408832,-276
599616344906096256,80
599616344913783680,349
599616344921471104,146
599616344929158528,-366
599616344936845952,-541
599616344944533248,-354
599616344952220672,-255
599616344959908096,-241
599616344967595520,-208
599616344975282944,-198
599616344982970240,-182
599616344990657664,-141
599616344998345088,-130
599616345006032512,-113
599616345013719936,-70
599616345021407360,-61
599616345029094656,-68
599616345036782080,-40
599616345044469504,-35
599616345052156928,-42
599616345059844352,-23
599616345067531648,-16
599616345075219072,-7
599616345082906496,11
599616345090593920,0
599616345098281344,-14
599616345105968768,2
599616345113656064,-2
599616345121343488,-18
599616345129030912,-9
599616345136718336,4
599616345144405760,7
599616345152093056,9
599616345159780480,0
599616345167467904,-9
599616345175155328,11
599616345182842752,18
599616345190530048,-4
599616345198217472,-11
599616345205904896,-9
599616345213592320,-9
599616345221279744,-7
599616345228967168,9
599616345236654464,26
599616345244341888,21
599616345252029312,18
599616345259716652,33
599616345267403904,21
599616345275091200,16
599616345282778368,42
599616345290465664,40
599616345298152960,21
599616345305840256,37
599616345313527424,47
599616345321214720,37
599616345328902016,63
599616345336589312,80
599616345344276480,52
599616345351963776,44
599616345359651072,54
599616345367338240,54
599616345375025536,68
599616345382712832,70
599616345390400128,61
599616345398087296,63
599616345405774592,54
599616345413461888,-11
599616345421149184,-70
599616345428836352,18
599616345436523648,321
599616345444210944,605
599616345451898112,475
599616345459585408,-30
599616345467272704,-286
599616345474960000,-96
599616345482647168,66
599616345490334464,52
599616345498021760,68
599616345505709056,99
599616345513396224,94
599616345521083520,108
599616345528770816,132
599616345536457984,134
599616345544145280,141
599616345551832576,156
599616345559519872,151
599616345567207040,151
599616345574894336,151
599616345582581632,141
599616345590268928,148
599616345597956096,167
599616345605643392,160
599616345613330688,141
599616345621017856,137
599616345628705152,139
599616345636392448,130
599616345644079744,120
599616345651766912,125
599616345659454208,127
599616345667141504,127
599616345674828800,132
599616345682515968,146
599616345690203264,148
599616345697890560,139
599616345705577728,134
599616345713265024,134
599616345720952320,137
599616345728639616,125
599616345736326784,118
599616345744014080,127
599616345751701376,125
599616345759388672,111
599616345767075840,113
599616345774763136,115
599616345782450432,104
599616345790137728,80
599616345797824896,66
599616345805512192,56
599616345813199488,37
599616345820886719,35
599616345828574208,47
599616345836261760,54
599616345843949312,70
599616345851636864,87
599616345859324416,78
599616345867011968,78
599616345874699392,89
599616345882386944,85
599616345890074496,85
599616345897762048,96
599616345905449600,94
599616345913137152,87
599616345920824704,94
599616345928512256,104
599616345936199808,104
599616345943887360,82
599616345951574784,21
599616345959262336,18
599616345966949888,212
599616345974637440,529
599616345982324992,598
599616345990012544,172
599616345997700096,-278
599616346005387648,-224
599616346013075200,28
599616346020762752,120
599616346028450304,174
599616346036137728,241
599616346043825280,257
599616346051512832,271
599616346059200384,293
599616346066887936,281
599616346074575488,248
599616346082263040,243
599616346089950592,229
599616346097638144,191
599616346105325696,186
599616346113013248,210
599616346120700672,217
599616346128388224,219
599616346136075776,248
599616346143763328,281
599616346151450880,286
599616346159138432,281
599616346166825984,290
599616346174513536,281
599616346182201088,264
599616346189888640,262
599616346197576064,269
599616346205263616,278
599616346212951168,267
599616346220638720,245
599616346228326272,248
599616346236013824,248
599616346243701376,226
599616346251388928,215
599616346259076480,217
599616346266764032,215
599616346274451584,208
599616346282139008,212
599616346289826560,215
599616346297514112,205
599616346305201664,203
599616346312889216,193
599616346320576768,182
599616346328264320,189
599616346335951872,193
599616346343639424,179
599616346351326976,170
599616346359014528,172
599616346366701952,160
599616346374389504,144
599616346382077138,146
599616346389764352,151
599616346397451520,151
599616346405138560,158
599616346412825728,144
599616346420512896,127
599616346428199936,130
599616346435887104,130
599616346443574144,130
599616346451261312,125
599616346458948480,113
599616346466635520,108
599616346474322688,108
599616346482009856,87
599616346489696896,2
599616346497384064,-54
599616346505071232,120
599616346512758272,468
599616346520445440,628
599616346528132608,352
599616346535819648,-99
599616346543506816,-205
599616346551193856,-35
599616346558881024,59
599616346566568192,78
599616346574255232,106
599616346581942400,115
599616346589629568,113
599616346597316608,115
599616346605003776,108
599616346612690944,106
599616346620377984,115
599616346628065152,125
599616346635752192,122
599616346643439360,113
599616346651126528,111
599616346658813568,104
599616346666500736,111
599616346674187904,120
599616346681874944,118
599616346689562112,115
599616346697249280,113
599616346704936320,111
599616346712623488,101
599616346720310656,92
599616346727997696,96
599616346735684864,99
599616346743371904,87
599616346751059072,82
599616346758746240,73
599616346766433280,59
599616346774120448,56
599616346781807616,40
599616346789494656,23
599616346797181824,16
599616346804868992,9
599616346812556032,16
599616346820243200,30
599616346827930240,35
599616346835617408,33
599616346843304576,40
599616346850991616,47
599616346858678784,44
599616346866365952,35
599616346874052992,26
599616346881740160,40
599616346889427328,42
599616346897114368,16
599616346904801536,18
599616346912488576,30
599616346920175744,26
599616346927862912,33
599616346935549952,35
599616346943237035,37
599616346950924160,44
599616346958611328,35
599616346966298368,16
599616346973985536,18
599616346981672704,33
599616346989359744,37
599616346997046912,23
599616347004733952,11
599616347012421120,26
599616347020108288,33
599616347027795328,-28
599616347035482496,-101
599616347043169664,-49
599616347050856704,198
599616347058543872,503
599616347066231040,496
599616347073918080,59
599616347081605248,-295
599616347089292416,-215
599616347096979456,-47
599616347104666624,-11
599616347112353664,14
599616347120040832,33
599616347127728000,21
599616347135415040,21
599616347143102208,33
599616347150789376,33
599616347158476416,16
599616347166163584,14
599616347173850752,33
599616347181537792,33
599616347189224960,21
599616347196912000,37
599616347204599168,44
599616347212286336,33
599616347219973376,44
599616347227660544,49
599616347235347712,16
599616347243034752,9
599616347250721920,26
599616347258409088,11
599616347266096128,2
599616347273783296,26
599616347281470464,28
599616347289157504,7
599616347296844672,2
599616347304531712,26
599616347312218880,40
599616347319906048,21
599616347327593088,7
599616347335280256,16
599616347342967424,16
599616347350654464,4
599616347358341632,2
599616347366028800,9
599616347373715840,21
599616347381403008,23
599616347389090048,9
599616347396777216,-2
599616347404464384,0
599616347412151424,7
599616347419838592,9
599616347427525760,9
599616347435212800,4
599616347442899968,4
599616347450587136,11
599616347458274176,7
599616347465961344,-4
599616347473648384,2
599616347481335552,11
599616347489022720,14
599616347496709760,16
599616347504396932,11
599616347512084224,-7
599616347519771520,-9
599616347527458944,0
599616347535146240,-2
599616347542833536,-9
599616347550520832,-11
599616347558208256,0
599616347565895552,-7
599616347573582848,-54
599616347581270144,-127
599616347588957568,-104
599616347596644864,156
599616347604332160,510
599616347612019584,524
599616347619706880,73
599616347627394176,-304
599616347635081472,-238
599616347642768896,-75
599616347650456192,-56
599616347658143488,-40
599616347665830784,-18
599616347673518208,-47
599616347681205504,-42
599616347688892800,0
599616347696580224,14
599616347704267520,11
599616347711954816,18
599616347719642112,26
599616347727329536,18
599616347735016832,7
599616347742704128,14
599616347750391424,23
599616347758078848,14
599616347765766144,11
599616347773453440,0
599616347781140864,-18
599616347788828160,-2
599616347796515456,-2
599616347804202752,-42
599616347811890176,-33
599616347819577472,-2
599616347827264768,-2
599616347834952064,-9
599616347842639488,0
599616347850326784,11
599616347858014080,7
599616347865701504,4
599616347873388800,9
599616347881076096,-2
599616347888763392,-9
599616347896450816,-2
599616347904138112,-2
599616347911825408,-4
599616347919512704,0
599616347927200128,0
599616347934887424,-4
599616347942574720,-7
599616347950262144,-7
599616347957949440,-4
599616347965636736,0
599616347973324032,0
599616347981011456,-11
599616347988698752,-21
599616347996386048,-14
599616348004073344,-16
599616348011760768,-30
599616348019448064,-35
599616348027135360,-26
599616348034822784,-14
599616348042510080,-14
599616348050197376,-33
599616348057884672,-44
599616348065572090,-40
599616348073259264,-33
599616348080946432,-33
599616348088633600,-35
599616348096320896,-33
599616348104008064,-35
599616348111695232,-40
599616348119382400,-54
599616348127069568,-115
599616348134756736,-172
599616348142444032,-47
599616348150131200,281
599616348157818368,510
599616348165505536,307
599616348173192704,-153
599616348180880000,-333
599616348188567168,-212
599616348196254336,-132
599616348203941504,-94
599616348211628672,-47
599616348219315840,-42
599616348227003136,-61
599616348234690304,-56
599616348242377472,-42
599616348250064640,-37
599616348257751808,-49
599616348265439104,-56
599616348273126272,-54
599616348280813440,-49
599616348288500608,-47
599616348296187776,-49
599616348303875072,-49
599616348311562240,-42
599616348319249408,-37
599616348326936576,-40
599616348334623744,-42
599616348342310912,-49
599616348349998208,-59
599616348357685376,-59
599616348365372544,-52
599616348373059712,-52
599616348380746880,-49
599616348388434176,-52
599616348396121344,-52
599616348403808512,-49
599616348411495680,-63
599616348419182848,-78
599616348426870016,-73
599616348434557312,-75
599616348442244480,-82
599616348449931648,-75
599616348457618816,-70
599616348465305984,-70
599616348472993280,-70
599616348480680448,-73
599616348488367616,-73
599616348496054784,-70
599616348503741952,-70
599616348511429120,-68
599616348519116416,-63
599616348526803584,-66
599616348534490752,-73
599616348542177920,-75
599616348549865088,-80
599616348557552384,-85
599616348565239552,-80
599616348572926720,-75
599616348580613888,-73
599616348588301056,-59
599616348595988352,-49
599616348603675520,-63
599616348611362688,-75
599616348619049856,-78
599616348626737074,-78
599616348634424320,-82
599616348642111616,-80
599616348649798784,-75
599616348657486080,-73
599616348665173376,-80
599616348672860672,-96
599616348680547840,-151
599616348688235136,-217
599616348695922432,-122
599616348703609728,200
599616348711296896,503
599616348718984192,397
599616348726671488,-75
599616348734358656,-361
599616348742045952,-264
599616348749733248,-144
599616348757420544,-130
599616348765107712,-108
599616348772795008,-99
599616348780482304,-113
599616348788169600,-101
599616348795856768,-87
599616348803544064,-101
599616348811231360,-104
599616348818918528,-89
599616348826605824,-87
599616348834293120,-99
599616348841980416,-99
599616348849667584,-92
599616348857354880,-94
599616348865042176,-92
599616348872729472,-82
599616348880416640,-82
599616348888103936,-89
599616348895791232,-99
599616348903478400,-108
599616348911165696,-113
599616348918852992,-106
599616348926540288,-89
599616348934227456,-78
599616348941914752,-78
599616348949602048,-70
599616348957289344,-56
599616348964976512,-59
599616348972663808,-70
599616348980351104,-68
599616348988038272,-66
599616348995725568,-73
599616349003412864,-70
599616349011100160,-70
599616349018787328,-75
599616349026474624,-68
599616349034161920,-59
599616349041849216,-61
599616349049536384,-63
599616349057223680,-66
599616349064910976,-61
599616349072598144,-63
599616349080285440,-70
599616349087972736,-66
599616349095660032,-59
599616349103347200,-61
599616349111034496,-70
599616349118721792,-73
599616349126409088,-70
599616349134096256,-70
599616349141783552,-61
599616349149470848,-47
599616349157158144,-47
599616349164845312,-61
599616349172532608,-61
599616349180219904,-56
599616349187907141,-54
599616349195594368,-52
599616349203281536,-56
599616349210968576,-59
599616349218655744,-54
599616349226342912,-52
599616349234029952,-78
599616349241717120,-151
599616349249404160,-179
599616349257091328,28
599616349264778496,425
599616349272465536,602
599616349280152704,283
599616349287839872,-177
599616349295526912,-269
599616349303214080,-139
599616349310901248,-101
599616349318588288,-99
599616349326275456,-73
599616349333962624,-68
599616349341649664,-73
599616349349336832,-59
599616349357023872,-52
599616349364711040,-70
599616349372398208,-80
599616349380085248,-63
599616349387772416,-54
599616349395459584,-56
599616349403146624,-59
599616349410833792,-52
599616349418520960,-44
599616349426208000,-49
599616349433895168,-61
599616349441582208,-70
599616349449269376,-68
599616349456956544,-63
599616349464643584,-80
599616349472330752,-87
599616349480017920,-73
599616349487704960,-68
599616349495392128,-68
599616349503079296,-56
599616349510766336,-61
599616349518453504,-63
599616349526140672,-47
599616349533827712,-54
599616349541514880,-80
599616349549201920,-73
599616349556889088,-68
599616349564576256,-82
599616349572263296,-75
599616349579950464,-61
599616349587637632,-73
599616349595324672,-75
599616349603011840,-63
599616349610699008,-66
599616349618386048,-68
599616349626073216,-63
599616349633760256,-66
599616349641447424,-63
599616349649134592,-63
599616349656821632,-75
599616349664508800,-78
599616349672195968,-63
599616349679883008,-70
599616349687570176,-89
599616349695257344,-82
599616349702944384,-59
599616349710631552,-59
599616349718318592,-80
599616349726005760,-89
599616349733692928,-82
599616349741379968,-78
599616349749067038,-82
599616349756754560,-87
599616349764442112,-85
599616349772129664,-80
599616349779817216,-80
599616349787504768,-104
599616349795192320,-174
599616349802879744,-219
599616349810567296,-78
599616349818254848,264
599616349825942400,520
599616349833629952,359
599616349841317504,-85
599616349849005056,-309
599616349856692608,-231
599616349864380160,-146
599616349872067712,-125
599616349879755136,-108
599616349887442688,-101
599616349895130240,-99
599616349902817792,-101
599616349910505344,-104
599616349918192896,-94
599616349925880448,-82
599616349933568000,-87
599616349941255552,-96
599616349948943104,-96
599616349956630656,-94
599616349964318080,-99
599616349972005632,-92
599616349979693184,-82
599616349987380736,-89
599616349995068288,-92
599616350002755840,-94
599616350010443392,-104
599616350018130944,-108
599616350025818496,-104
599616350033506048,-94
599616350041193600,-82
599616350048881024,-85
599616350056568576,-92
599616350064256128,-87
599616350071943680,-85
599616350079631232,-89
599616350087318784,-101
599616350095006336,-106
599616350102693888,-101
599616350110381440,-99
599616350118068992,-99
599616350125756416,-87
599616350133443968,-78
599616350141131520,-82
599616350148819072,-89
599616350156506624,-85
599616350164194176,-80
599616350171881728,-82
599616350179569280,-85
599616350187256832,-85
599616350194944384,-85
599616350202631936,-82
599616350210319360,-82
599616350218006912,-87
599616350225694464,-87
599616350233382016,-89
599616350241069568,-99
599616350248757120,-96
599616350256444672,-78
599616350264132224,-63
599616350271819776,-68
599616350279507328,-85
599616350287194880,-92
599616350294882304,-80
599616350302569856,-73
599616350310257457,-80
599616350317944576,-89
599616350325631744,-87
599616350333318784,-80
599616350341005952,-94
599616350348693120,-148
599616350356380160,-208
599616350364067328,-122
599616350371754368,177
599616350379441536,470
599616350387128704,397
599616350394815744,-23
599616350402502912,-307
599616350410190080,-260
599616350417877120,-160
599616350425564288,-132
599616350433251456,-108
599616350440938496,-99
599616350448625664,-101
599616350456312832,-89
599616350463999872,-96
599616350471687040,-115
599616350479374080,-96
599616350487061248,-75
599616350494748416,-80
599616350502435456,-89
599616350510122624,-85
599616350517809792,-75
599616350525496832,-78
599616350533184000,-82
599616350540871168,-75
599616350548558208,-70
599616350556245376,-70
599616350563932416,-73
599616350571619584,-73
599616350579306752,-78
599616350586993792,-85
599616350594680960,-78
599616350602368128,-63
599616350610055168,-73
599616350617742336,-82
599616350625429504,-75
599616350633116544,-80
599616350640803712,-92
599616350648490880,-99
599616350656177920,-101
599616350663865088,-101
599616350671552128,-99
599616350679239296,-96
599616350686926464,-92
599616350694613504,-92
599616350702300672,-101
599616350709987840,-99
599616350717674880,-89
599616350725362048,-92
599616350733049216,-89
599616350740736256,-82
599616350748423424,-94
599616350756110464,-101
599616350763797632,-99
599616350771484800,-104
599616350779171840,-113
599616350786859008,-115
599616350794546176,-111
599616350802233216,-96
599616350809920384,-82
599616350817607552,-82
599616350825294592,-96
599616350832981760,-108
599616350840668800,-113
599616350848355968,-113
599616350856043136,-111
599616350863730176,-108
599616350871417354,-108
599616350879104512,-108
599616350886791680,-113
599616350894478720,-144
599616350902165888,-217
599616350909853056,-252
599616350917540096,-108
599616350925227264,215
599616350932914304,416
599616350940601472,186
599616350948288640,-269
599616350955975680,-437
599616350963662848,-326
599616350971350016,-226
599616350979037056,-172
599616350986724224,-134
599616350994411392,-134
599616351002098432,-137
599616351009785600,-132
599616351017472768,-127
599616351025159808,-127
599616351032846976,-125
599616351040534016,-118
599616351048221184,-113
599616351055908352,-111
599616351063595392,-111
599616351071282560,-113
599616351078969728,-108
599616351086656768,-94
599616351094343936,-87
599616351102031104,-89
599616351109718144,-94
599616351117405312,-94
599616351125092352,-94
599616351132779520,-92
599616351140466688,-82
599616351148153728,-80
599616351155840896,-82
599616351163528064,-87
599616351171215104,-99
599616351178902272,-111
599616351186589440,-113
599616351194276480,-118
599616351201963648,-125
599616351209650816,-127
599616351217337856,-125
599616351225025024,-125
599616351232712064,-130
599616351240399232,-132
599616351248086400,-127
599616351255773440,-127
599616351263460608,-134
599616351271147776,-137
599616351278834816,-134
599616351286521984,-137
599616351294209152,-137
599616351301896192,-130
599616351309583360,-134
599616351317270400,-141
599616351324957568,-146
599616351332644736,-148
599616351340331776,-144
599616351348018944,-141
599616351355706112,-137
599616351363393152,-130
599616351371080320,-130
599616351378767488,-130
599616351386454528,-132
599616351394141696,-137
599616351401828736,-137
599616351409515904,-132
599616351417203072,-132
599616351424890112,-125
599616351432577251,-127
599616351440264704,-160
599616351447952128,-236
599616351455639552,-238
599616351463326848,-26
599616351471014272,295
599616351478701696,364
599616351486389120,2
599616351494076544,-401
599616351501763968,-434
599616351509451264,-297
599616351517138688,-219
599616351524826112,-163
599616351532513536,-137
599616351540200960,-141
599616351547888256,-137
599616351555575680,-127
599616351563263104,-125
599616351570950528,-125
599616351578637952,-122
599616351586325376,-120
599616351594012672,-115
599616351601700096,-115
599616351609387520,-113
599616351617074944,-106
599616351624762368,-99
599616351632449664,-94
599616351640137088,-92
599616351647824512,-89
599616351655511936,-85
599616351663199360,-92
599616351670886784,-101
599616351678574080,-104
599616351686261504,-101
599616351693948928,-99
599616351701636352,-99
599616351709323776,-106
599616351717011072,-115
599616351724698496,-118
599616351732385920,-120
599616351740073344,-130
599616351747760768,-134
599616351755448192,-134
599616351763135488,-137
599616351770822912,-137
599616351778510336,-137
599616351786197760,-137
599616351793885184,-127
599616351801572480,-120
599616351809259904,-127
599616351816947328,-134
599616351824634752,-127
599616351832322176,-125
599616351840009600,-130
599616351847696896,-134
599616351855384320,-137
599616351863071744,-146
599616351870759168,-148
599616351878446592,-139
599616351886133888,-134
599616351893821312,-132
599616351901508736,-130
599616351909196160,-141
599616351916883584,-156
599616351924570880,-163
599616351932258304,-172
599616351939945728,-182
599616351947633152,-184
599616351955320576,-182
599616351963008000,-184
599616351970695296,-198
599616351978382720,-245
599616351986070144,-326
599616351993757496,-323
599616352001444992,-94
599616352009132544,260
599616352016820224,373
599616352024507776,-7
599616352032195456,-527
599616352039883008,-692
599616352047570688,-593
599616352055258240,-470
599616352062945920,-382
599616352070633472,-276
599616352078321152,-56
599616352086008704,101
599616352093696256,-312
599616352101383936,-1813
599616352109071488,-3529
599616352116759168,-4205
599616352124446720,-3931
599616352132134400,-2702
599616352139821952,-924
599616352147509632,423
599616352155197184,1184
599616352162884736,1520
599616352170572416,1640
599616352178259968,1645
599616352185947648,1118
599616352193635200,-146
599616352201322880,-2035
599616352209010432,-2316
599616352216698112,-430
599616352224385664,26
599616352232073344,-101
599616352239760896,1191
599616352247448448,1756
599616352255136128,1832
599616352262823680,2669
599616352270511360,2799
599616352278198912,1905
599616352285886592,1612
599616352293574144,2021
599616352301261824,1948
599616352308949376,1430
599616352316636928,1510
599616352324324608,2224
599616352332012160,2862
599616352339699840,3456
599616352347387392,3974
599616352355075072,3224
599616352362762624,997
599616352370450304,47
599616352378137856,1550
599616352385825536,2654
599616352393513088,1971
599616352401200640,787
599616352408888320,224
599616352416575872,806
599616352424263552,1687
599616352431951104,1725
599616352439638784,1903
599616352447326336,2896
599616352455014016,3115
599616352462701568,1198
599616352470389120,-1165
599616352478076800,-803
599616352485764352,1002
599616352493452032,978
599616352501139584,444
599616352508827264,1070
599616352516514816,1614
599616352524202496,1680
599616352531890048,1709
599616352539577728,929
599616352547265280,-683
599616352554952998,-713
599616352562640512,945
599616352570328064,1548
599616352578015744,1548
599616352585703296,2170
599616352593390976,2359
599616352601078528,2044
599616352608766208,1955
599616352616453760,1917
599616352624141440,1728
599616352631828992,1598
599616352639516672,1520
599616352647204224,1397
599616352654891776,1286
599616352662579456,1191
599616352670267008,1066
599616352677954688,940
599616352685642240,846
599616352693329920,747
599616352701017472,640
599616352708705152,548
599616352716392704,449
599616352724080256,345
599616352731767936,267
599616352739455488,219
599616352747143168,170
599616352754830720,115
599616352762518400,85
599616352770205952,56
599616352777893632,14
599616352785581184,-4
599616352793268864,-7
599616352800956416,-37
599616352808643968,-85
599616352816331648,-122
599616352824019200,-158
599616352831706880,-210
599616352839394432,-267
599616352847082112,-328
599616352854769664,-378
599616352862457344,-397
599616352870144896,-387
599616352877832448,-385
599616352885520128,-404
599616352893207680,-425
599616352900895360,-434
599616352908582912,-439
599616352916270592,-449
599616352923958144,-458
599616352931645824,-453
599616352939333376,-444
599616352947021056,-430
599616352954708608,-411
599616352962396160,-401
599616352970083840,-399
599616352977771392,-404
599616352985459072,-418
599616352993146624,-423
599616353000834304,-416
599616353008521856,-413
599616353016209536,-423
599616353023897088,-430
599616353031584640,-432
599616353039272320,-446
599616353046959872,-513
599616353054647552,-591
599616353062335104,-515
599616353070022784,-193
599616353077710336,186
599616353085398016,217
599616353093085568,-200
599616353100773248,-576
599616353108460800,-583
599616353116148500,-487
599616353123836032,-475
599616353131523584,-465
599616353139211136,-444
599616353146898688,-442
599616353154586240,-439
599616353162273792,-434
599616353169961216,-432
599616353177648768,-413
599616353185336320,-397
599616353193023872,-399
599616353200711424,-392
599616353208398976,-382
599616353216086528,-385
599616353223774080,-382
599616353231461632,-378
599616353239149184,-380
599616353246836608,-380
599616353254524160,-385
599616353262211712,-392
599616353269899264,-390
599616353277586816,-380
599616353285274368,-375
599616353292961920,-366
599616353300649472,-354
599616353308337024,-345
599616353316024576,-335
599616353323712128,-330
599616353331399552,-326
599616353339087104,-319
599616353346774656,-316
599616353354462208,-316
599616353362149760,-314
599616353369837312,-316
599616353377524864,-312
599616353385212416,-302
599616353392899968,-304
599616353400587520,-304
599616353408275072,-297
599616353415962496,-297
599616353423650048,-302
599616353431337600,-302
599616353439025152,-302
599616353446712704,-302
599616353454400256,-300
599616353462087808,-300
599616353469775360,-300
599616353477462912,-297
599616353485150464,-286
599616353492837888,-269
599616353500525440,-264
599616353508212992,-276
599616353515900544,-283
599616353523588096,-283
599616353531275648,-281
599616353538963200,-283
599616353546650752,-290
599616353554338304,-295
599616353562025856,-288
599616353569713408,-293
599616353577400832,-359
599616353585088384,-444
599616353592775936,-366
599616353600463488,-35
599616353608151040,333
599616353615838592,330
599616353623526144,-89
599616353631213696,-439
599616353638901248,-432
599616353646588800,-338
599616353654276224,-319
599616353661963776,-307
599616353669651328,-288
599616353677338915,-281
599616353685026432,-271
599616353692713984,-260
599616353700401536,-252
599616353708089088,-243
599616353715776640,-231
599616353723464192,-222
599616353731151616,-215
599616353738839168,-210
599616353746526720,-203
599616353754214272,-186
599616353761901824,-177
599616353769589376,-174
599616353777276928,-172
599616353784964480,-167
599616353792652032,-153
599616353800339584,-127
599616353808027008,-101
599616353815714560,-44
599616353823402112,63
599616353831089664,224
599616353838777216,434
599616353846464768,647
599616353854152320,803
599616353861839872,907
599616353869527424,1000
599616353877214976,1061
599616353884902528,1080
599616353892589952,1099
599616353900277504,1148
599616353907965056,1267
599616353915652608,1458
599616353923340160,1574
599616353931027712,1562
599616353938715264,1517
599616353946402816,1106
599616353954090368,-295
599616353961777920,-2685
599616353969465472,-3969
599616353977152896,-1430
599616353984840448,2647
599616353992528000,3992
599616354000215552,4040
599616354007903104,4839
599616354015590656,4964
599616354023278208,5002
599616354030965760,6118
599616354038653312,6756
599616354046340864,6416
599616354054028288,6548
599616354061715840,7411
599616354069403392,8413
599616354077090944,9496
599616354084778496,9815
599616354092466048,8498
599616354100153600,6761
599616354107841152,5962
599616354115528704,5881
599616354123216256,6082
599616354130903808,6610
599616354138591232,7468
599616354146278784,8238
599616354153966336,8224
599616354161653888,7078
599616354169341440,5494
599616354177028992,4411
599616354184716544,3728
599616354192404096,3092
599616354200091648,2728
599616354207779200,2439
599616354215466624,2151
599616354223154176,2404
599616354230841728,2685
599616354238529330,2231
599616354246216832,1768
599616354253904384,2000
599616354261591936,2226
599616354269279488,2096
599616354276967040,1945
599616354284654592,1479
599616354292342016,832
599616354300029568,865
599616354307717120,1262
599616354315404672,1002
599616354323092224,484
599616354330779776,706
599616354338467328,1139
599616354346154880,948
599616354353842432,690
599616354361529984,780
599616354369217408,926
599616354376904960,1498
599616354384592512,2359
599616354392280064,2574
599616354399967616,2777
599616354407655168,3536
599616354415342720,3799
599616354423030272,3640
599616354430717824,3773
599616354438405376,4000
599616354446092928,4470
599616354453780352,5676
599616354461467904,6938
599616354469155456,7234
599616354476843008,6893
599616354484530560,6683
599616354492218112,6870
599616354499905664,7179
599616354507593216,7037
599616354515280768,6241
599616354522968320,4342
599616354530655872,1236
599616354538343296,-1458
599616354546030848,-3479
599616354553718400,-6983
599616354561405952,-10806
599616354569093504,-11584
599616354576781056,-11316
599616354584468608,-13146
599616354592156160,-14969
599616354599843712,-15262
599616354607531264,-15435
599616354615218688,-15579
599616354622906240,-15168
599616354630593792,-14773
599616354638281344,-14669
599616354645968896,-14444
599616354653656448,-13924
599616354661344000,-13203
599616354669031552,-12480
599616354676719104,-12130
599616354684406656,-12153
599616354692094208,-12071
599616354699781632,-11723
599616354707469184,-11342
599616354715156736,-11011
599616354722844288,-10654
599616354730531840,-10300
599616354738219392,-9995
599616354745906944,-9678
599616354753594496,-9331
599616354761282048,-9004
599616354768969600,-8702
599616354776657024,-8409
599616354784344576,-8125
599616354792032128,-7844
599616354799719745,-7581
599616354807407232,-7326
599616354815094656,-7063
599616354822782080,-6822
599616354830469376,-6605
599616354838156800,-6368
599616354845844224,-6149
599616354853531648,-5964
599616354861219072,-5756
599616354868906496,-5555
599616354876593792,-5404
599616354884281216,-5198
599616354891968640,-4959
599616354899656064,-4792
599616354907343488,-4638
599616354915030784,-4468
599616354922718208,-4319
599616354930405632,-4167
599616354938093056,-4016
599616354945780480,-3884
599616354953467904,-3742
599616354961155200,-3612
599616354968842624,-3503
599616354976530048,-3378
599616354984217472,-3252
599616354991904896,-3141
599616354999592192,-3030
599616355007279616,-2931
599616355014967040,-2834
599616355022654464,-2735
599616355030341888,-2650
599616355038029312,-2557
599616355045716608,-2451
599616355053404032,-2366
599616355061091456,-2309
599616355068778880,-2222
599616355076466304,-2108
599616355084153600,-2021
599616355091841024,-1962
599616355099528448,-1896
599616355107215872,-1834
599616355114903296,-1775
599616355122590720,-1716
599616355130278016,-1645
599616355137965440,-1574
599616355145652864,-1524
599616355153340288,-1479
599616355161027712,-1451
599616355168715008,-1487
599616355176402432,-1468
599616355184089856,-1212
599616355191777280,-770
599616355199464704,-479
599616355207152128,-638
599616355214839424,-990
599616355222526848,-1115
599616355230214272,-1061
599616355237901696,-1033
599616355245589120,-1011
599616355253276416,-966
599616355260963840,-933
599616355268651264,-898
599616355276338688,-851
599616355284026112,-815
599616355291713408,-789
599616355299400832,-756
599616355307088256,-732
599616355314775680,-709
599616355322463104,-678
599616355330150528,-654
599616355337837824,-633
599616355345525248,-612
599616355353212672,-588
599616355360899990,-569
599616355368587136,-550
599616355376274304,-534
599616355383961472,-515
599616355391648768,-491
599616355399335936,-472
599616355407023104,-451
599616355414710272,-427
599616355422397440,-401
599616355430084608,-371
599616355437771904,-347
599616355445459072,-333
599616355453146240,-321
599616355460833408,-304
599616355468520576,-286
599616355476207872,-269
599616355483895040,-264
599616355491582208,-255
599616355499269376,-236
599616355506956544,-224
599616355514643712,-217
599616355522331008,-200
599616355530018176,-189
599616355537705344,-179
599616355545392512,-174
599616355553079680,-172
599616355560766976,-165
599616355568454144,-160
599616355576141312,-160
599616355583828480,-158
599616355591515648,-137
599616355599202944,-113
599616355606890112,-92
599616355614577280,-78
599616355622264448,-75
599616355629951616,-73
599616355637638784,-70
599616355645326080,-66
599616355653013248,-59
599616355660700416,-49
599616355668387584,-42
599616355676074752,-35
599616355683762048,-40
599616355691449216,-75
599616355699136384,-156
599616355706823552,-165
599616355714510720,61
599616355722197888,460
599616355729885184,654
599616355737572352,387
599616355745259520,0
599616355752946688,-94
599616355760633856,-40
599616355768321152,-42
599616355776008320,-42
599616355783695488,-18
599616355791382656,-11
599616355799069824,-11
599616355806756992,-4
599616355814444288,2
599616355822131456,7
599616355829818624,14
599616355837505792,18
599616355845192960,21
599616355852880256,23
599616355860567424,23
599616355868254592,23
599616355875941760,28
599616355883628928,33
599616355891316224,35
599616355899003392,37
599616355906690560,40
599616355914377728,42
599616355922064974,49
599616355929752192,56
599616355937439360,61
599616355945126528,66
599616355952813824,66
599616355960500992,63
599616355968188160,66
599616355975875328,68
599616355983562496,66
599616355991249664,61
599616355998936960,59
599616356006624128,59
599616356014311296,66
599616356021998464,68
599616356029685632,66
599616356037372928,68
599616356045060096,73
599616356052747264,73
599616356060434432,75
599616356068121600,78
599616356075808768,70
599616356083496064,63
599616356091183232,63
599616356098870400,63
599616356106557568,61
599616356114244736,61
599616356121932032,70
599616356129619200,80
599616356137306368,89
599616356144993536,96
599616356152680704,94
599616356160368000,89
599616356168055168,89
599616356175742336,92
599616356183429504,92
599616356191116672,89
599616356198803840,92
599616356206491136,94
599616356214178304,80
599616356221865472,18
599616356229552640,-70
599616356237239808,-26
599616356244927104,276
599616356252614272,666
599616356260301440,728
599616356267988608,359
599616356275675776,14
599616356283362944,-9
599616356291050240,40
599616356298737408,30
599616356306424576,35
599616356314111744,49
599616356321798912,44
599616356329486208,44
599616356337173376,56
599616356344860544,56
599616356352547712,54
599616356360234880,56
599616356367922048,59
599616356375609344,59
599616356383296512,54
599616356390983680,52
599616356398670848,54
599616356406358016,54
599616356414045312,49
599616356421732480,52
599616356429419648,54
599616356437106816,52
599616356444793984,54
599616356452481152,59
599616356460168448,66
599616356467855616,73
599616356475542784,75
599616356483229954,73
599616356490917120,73
599616356498604288,75
599616356506291328,75
599616356513978496,68
599616356521665664,68
599616356529352704,73
599616356537039872,68
599616356544726912,66
599616356552414080,73
599616356560101248,75
599616356567788288,70
599616356575475456,68
599616356583162624,68
599616356590849664,70
599616356598536832,73
599616356606224000,68
599616356613911040,63
599616356621598208,59
599616356629285376,49
599616356636972416,44
599616356644659584,49
599616356652346624,59
599616356660033792,66
599616356667720960,78
599616356675408000,82
599616356683095168,80
599616356690782336,73
599616356698469376,68
599616356706156544,68
599616356713843712,70
599616356721530752,68
599616356729217920,68
599616356736904960,68
599616356744592128,59
599616356752279296,9
599616356759966336,-85
599616356767653504,-85
599616356775340672,172
599616356783027712,588
599616356790714880,754
599616356798402048,451
599616356806089088,68
599616356813776256,-11
599616356821463424,23
599616356829150464,-2
599616356836837632,-14
599616356844524672,7
599616356852211840,7
599616356859899008,2
599616356867586048,11
599616356875273216,16
599616356882960384,11
599616356890647424,14
599616356898334592,14
599616356906021760,9
599616356913708800,7
599616356921395968,7
599616356929083008,2
599616356936770176,0
599616356944457344,2
599616356952144384,0
599616356959831552,-2
599616356967518720,-4
599616356975205760,-4
599616356982892928,-4
599616356990580096,2
599616356998267136,11
599616357005954304,16
599616357013641472,18
599616357021328512,26
599616357029015680,33
599616357036702720,33
599616357044389855,35
599616357052077056,37
599616357059764224,33
599616357067451264,30
599616357075138432,33
599616357082825600,33
599616357090512640,30
599616357098199808,30
599616357105886848,35
599616357113574016,37
599616357121261184,35
599616357128948224,30
599616357136635392,33
599616357144322560,30
599616357152009600,23
599616357159696768,18
599616357167383936,14
599616357175070976,7
599616357182758144,9
599616357190445312,18
599616357198132352,30
599616357205819520,40
599616357213506560,40
599616357221193728,30
599616357228880896,26
599616357236567936,26
599616357244255104,30
599616357251942272,30
599616357259629312,28
599616357267316480,30
599616357275003648,28
599616357282690688,-2
599616357290377856,-85
599616357298064896,-151
599616357305752064,-26
599616357313439232,342
599616357321126272,687
599616357328813440,614
599616357336500608,208
599616357344187648,-30
599616357351874816,-21
599616357359561984,-21
599616357367249024,-52
599616357374936192,-42
599616357382623360,-33
599616357390310400,-40
599616357397997568,-35
599616357405684608,-26
599616357413371776,-28
599616357421058944,-28
599616357428745984,-26
599616357436433152,-23
599616357444120320,-21
599616357451807360,-23
599616357459494528,-28
599616357467181696,-30
599616357474868736,-33
599616357482555904,-37
599616357490242944,-37
599616357497930112,-35
599616357505617280,-37
599616357513304320,-37
599616357520991488,-33
599616357528678656,-23
599616357536365696,-14
599616357544052864,-9
599616357551740032,-4
599616357559427072,2
599616357567114240,4
599616357574801280,2
599616357582488448,7
599616357590175616,7
599616357597862656,0
599616357605549752,2
599616357613236864,9
599616357620924032,7
599616357628611072,4
599616357636298240,4
599616357643985408,7
599616357651672448,4
599616357659359616,2
599616357667046656,4
599616357674733824,7
599616357682420992,7
599616357690108032,0
599616357697795200,-4
599616357705482368,-9
599616357713169408,-14
599616357720856576,-9
599616357728543744,0
599616357736230784,9
599616357743917952,21
599616357751605120,23
599616357759292160,16
599616357766979328,11
599616357774666368,14
599616357782353536,14
599616357790040704,9
599616357797727744,4
599616357805414912,2
599616357813102080,2
599616357820789120,-18
599616357828476288,-99
599616357836163456,-165
599616357843850496,-37
599616357851537664,333
599616357859224704,652
599616357866911872,543
599616357874599040,122
599616357882286080,-101
599616357889973248,-73
599616357897660416,-54
599616357905347456,-68
599616357913034624,-52
599616357920721792,-42
599616357928408832,-52
599616357936096000,-47
599616357943783168,-37
599616357951470208,-35
599616357959157376,-35
599616357966844416,-35
599616357974531584,-35
599616357982218752,-37
599616357989905792,-40
599616357997592960,-37
599616358005280128,-37
599616358012967168,-37
599616358020654336,-35
599616358028341504,-35
599616358036028544,-37
599616358043715712,-35
599616358051402752,-30
599616358059089920,-30
599616358066777088,-28
599616358074464128,-21
599616358082151296,-16
599616358089838464,-16
599616358097525504,-18
599616358105212672,-18
599616358112899840,-14
599616358120586880,-14
599616358128274048,-18
599616358135961088,-18
599616358143648256,-14
599616358151335424,-14
599616358159022464,-14
599616358166709649,-11
599616358174396800,-11
599616358182083968,-14
599616358189771008,-9
599616358197458176,-9
599616358205145344,-16
599616358212832384,-21
599616358220519552,-21
599616358228206592,-26
599616358235893760,-28
599616358243580928,-33
599616358251267968,-42
599616358258955136,-40
599616358266642304,-26
599616358274329344,-18
599616358282016512,-14
599616358289703680,-7
599616358297390720,-7
599616358305077888,-11
599616358312765056,-9
599616358320452096,-7
599616358328139264,-9
599616358335826304,-16
599616358343513472,-14
599616358351200640,-7
599616358358887680,-21
599616358366574848,-85
599616358374262016,-170
599616358381949056,-127
599616358389636224,170
599616358397323392,567
599616358405010432,645
599616358412697600,274
599616358420384640,-70
599616358428071808,-96
599616358435758976,-54
599616358443446016,-78
599616358451133184,-78
599616358458820352,-61
599616358466507392,-63
599616358474194560,-59
599616358481881728,-49
599616358489568768,-44
599616358497255936,-47
599616358504943104,-47
599616358512630144,-44
599616358520317312,-44
599616358528004352,-47
599616358535691520,-47
599616358543378688,-49
599616358551065728,-52
599616358558752896,-49
599616358566440064,-47
599616358574127104,-49
599616358581814272,-52
599616358589501440,-49
599616358597188480,-47
599616358604875648,-44
599616358612562688,-37
599616358620249856,-23
599616358627937024,-18
599616358635624064,-18
599616358643311232,-16
599616358650998400,-14
599616358658685440,-18
599616358666372608,-21
599616358674059776,-18
599616358681746816,-16
599616358689433984,-14
599616358697121024,-16
599616358704808192,-21
599616358712495360,-16
599616358720182400,-9
599616358727869546,-11
599616358735556736,-16
599616358743243904,-16
599616358750930944,-18
599616358758618112,-16
599616358766305280,-16
599616358773992320,-23
599616358781679488,-33
599616358789366528,-37
599616358797053696,-42
599616358804740864,-42
599616358812427904,-35
599616358820115072,-28
599616358827802240,-18
599616358835489280,-11
599616358843176448,-11
599616358850863616,-14
599616358858550656,-16
599616358866237824,-14
599616358873924992,-11
599616358881612032,-14
599616358889299200,-14
599616358896986240,-11
599616358904673408,-18
599616358912360576,-56
599616358920047616,-148
599616358927734784,-186
599616358935421952,9
599616358943108992,423
599616358950796160,692
599616358958483328,477
599616358966170368,49
599616358973857536,-101
599616358981544576,-59
599616358989231744,-68
599616358996918912,-89
599616359004605952,-75
599616359012293120,-68
599616359019980288,-73
599616359027667328,-63
599616359035354496,-56
599616359043041664,-61
599616359050728704,-61
599616359058415872,-59
599616359066103040,-59
599616359073790080,-56
599616359081477248,-56
599616359089164288,-61
599616359096851456,-61
599616359104538624,-63
599616359112225664,-68
599616359119912832,-68
599616359127600000,-66
599616359135287040,-66
599616359142974208,-61
599616359150661376,-56
599616359158348416,-49
599616359166035584,-42
599616359173722624,-35
599616359181409792,-35
599616359189096960,-33
599616359196784000,-28
599616359204471168,-28
599616359212158336,-26
599616359219845376,-28
599616359227532544,-33
599616359235219712,-28
599616359242906752,-23
599616359250593920,-26
599616359258280960,-28
599616359265968128,-26
599616359273655296,-26
599616359281342336,-28
599616359289029443,-23
599616359296716672,-21
599616359304403840,-26
599616359312090880,-30
599616359319778048,-33
599616359327465216,-42
599616359335152256,-52
599616359342839424,-56
599616359350526464,-52
599616359358213632,-47
599616359365900800,-42
599616359373587840,-40
599616359381275008,-28
599616359388962176,-14
599616359396649216,-14
599616359404336384,-26
599616359412023552,-30
599616359419710592,-33
599616359427397760,-30
599616359435084928,-26
599616359442771968,-28
599616359450459136,-37
599616359458146176,-47
599616359465833344,-80
599616359473520512,-167
599616359481207552,-203
599616359488894720,-4
599616359496581888,404
599616359504268928,683
599616359511956096,501
599616359519643264,87
599616359527330304,-92
599616359535017472,-78
599616359542704512,-92
599616359550391680,-115
599616359558078848,-96
599616359565765888,-89
599616359573453056,-99
599616359581140224,-87
599616359588827264,-78
599616359596514432,-87
599616359604201600,-94
599616359611888640,-80
599616359619575808,-73
599616359627262976,-75
599616359634950016,-73
599616359642637184,-73
599616359650324224,-75
599616359658011392,-68
599616359665698560,-75
599616359673385600,-85
599616359681072768,-80
599616359688759936,-73
599616359696446976,-80
599616359704134144,-87
599616359711821312,-82
599616359719508352,-80
599616359727195520,-68
599616359734882560,-44
599616359742569728,-33
599616359750256896,-28
599616359757943936,-28
599616359765631104,-33
599616359773318272,-35
599616359781005312,-35
599616359788692480,-33
599616359796379648,-35
599616359804066688,-33
599616359811753856,-26
599616359819440896,-37
599616359827128064,-59
599616359834815232,-52
599616359842502272,-42
599616359850189340,-42
599616359857876480,-35
599616359865563648,-35
599616359873250816,-35
599616359880938112,-23
599616359888625280,-23
599616359896312448,-35
599616359903999616,-40
599616359911686784,-44
599616359919373952,-49
599616359927061248,-49
599616359934748416,-35
599616359942435584,-21
599616359950122752,-30
599616359957809920,-42
599616359965497216,-37
599616359973184384,-35
599616359980871552,-28
599616359988558720,-21
599616359996245888,-26
599616360003933184,-28
599616360011620352,-28
599616360019307520,-52
599616360026994688,-132
599616360034681856,-212
599616360042369024,-122
599616360050056320,222
599616360057743488,598
599616360065430656,595
599616360073117824,198
599616360080804992,-99
599616360088492288,-108
599616360096179456,-82
599616360103866624,-108
599616360111553792,-104
599616360119240960,-87
599616360126928128,-85
599616360134615424,-85
599616360142302592,-85
599616360149989760,-80
599616360157676928,-68
599616360165364096,-66
599616360173051392,-73
599616360180738560,-80
599616360188425728,-78
599616360196112896,-82
599616360203800064,-78
599616360211487232,-73
599616360219174528,-80
599616360226861696,-92
599616360234548864,-89
599616360242236032,-80
599616360249923200,-70
599616360257610496,-63
599616360265297664,-61
599616360272984832,-59
599616360280672000,-56
599616360288359168,-56
599616360296046464,-52
599616360303733632,-47
599616360311420800,-47
599616360319107968,-54
599616360326795136,-59
599616360334482304,-54
599616360342169600,-52
599616360349856768,-61
599616360357543936,-66
599616360365231104,-54
599616360372918272,-52
599616360380605568,-54
599616360388292736,-49
599616360395979904,-47
599616360403667072,-47
599616360411354328,-49
599616360419041792,-61
599616360426729216,-61
599616360434416768,-56
599616360442104192,-66
599616360449791616,-75
599616360457479168,-80
599616360465166592,-92
599616360472854144,-104
599616360480541568,-106
599616360488228992,-87
599616360495916544,-66
599616360503603968,-59
599616360511291392,-56
599616360518978944,-56
599616360526666368,-63
599616360534353792,-70
599616360542041344,-68
599616360549728768,-66
599616360557416320,-56
599616360565103744,-59
599616360572791168,-85
599616360580478720,-120
599616360588166144,-193
599616360595853568,-234
599616360603541120,-56
599616360611228544,333
599616360618915968,586
599616360626603520,373
599616360634290944,-44
599616360641978368,-196
599616360649665920,-137
599616360657353344,-122
599616360665040896,-139
599616360672728320,-132
599616360680415744,-130
599616360688103296,-127
599616360695790720,-111
599616360703478144,-115
599616360711165696,-127
599616360718853120,-115
599616360726540544,-127
599616360734228096,-158
599616360741915520,-151
599616360749603072,-130
599616360757290496,-134
599616360764977920,-139
599616360772665472,-127
599616360780352896,-125
599616360788040320,-127
599616360795727872,-122
599616360803415296,-120
599616360811102720,-122
599616360818790272,-122
599616360826477696,-113
599616360834165248,-115
599616360841852672,-122
599616360849540096,-127
599616360857227648,-139
599616360864915072,-139
599616360872602496,-122
599616360880290048,-122
599616360887977472,-144
599616360895664896,-144
599616360903352448,-130
599616360911039872,-139
599616360918727296,-158
599616360926414848,-156
599616360934102272,-156
599616360941789824,-165
599616360949477248,-163
599616360957164672,-158
599616360964852224,-165
599616360972539656,-170
599616360980227200,-172
599616360987914752,-177
599616360995602304,-177
599616361003289856,-186
599616361010977408,-203
599616361018664960,-215
599616361026352384,-212
599616361034039936,-215
599616361041727488,-219
599616361049415040,-205
599616361057102592,-189
599616361064790144,-184
599616361072477696,-186
599616361080165248,-189
599616361087852800,-186
599616361095540352,-189
599616361103227776,-189
599616361110915328,-177
599616361118602880,-179
599616361126290432,-193
599616361133977984,-191
599616361141665536,-198
599616361149353088,-267
599616361157040640,-333
599616361164728192,-212
599616361172415744,163
599616361180103296,531
599616361187790720,494
599616361195478272,120
599616361203165824,-141
599616361210853376,-212
599616361218540928,-231
599616361226228480,-182
599616361233916032,4
599616361241603584,321
599616361249291136,628
599616361256978688,1023
599616361264666240,1768
599616361272353664,2654
599616361280041216,3508
599616361287728768,4399
599616361295416320,4912
599616361303103872,4782
599616361310791424,4761
599616361318478976,5153
599616361326166528,5333
599616361333854080,5394
599616361341541632,5747
599616361349229056,6163
599616361356916608,6607
599616361364604160,7387
599616361372291712,8210
599616361379979264,8387
599616361387666816,8016
599616361395354368,9884
599616361403041920,17442
599616361410729472,19364
599616361418417024,19364
599616361426104576,19364
599616361433792000,19364
599616361441479552,19364
599616361449167104,19364
599616361456854656,19364
599616361464542208,19364
599616361472229760,17874
599616361479917312,14305
599616361487604864,11352
599616361495292416,8241
599616361502979968,4288
599616361510667392,1463
599616361518354944,2347
599616361526042496,4624
599616361533730071,4286
599616361541417600,3470
599616361549105152,3101
599616361556792704,1517
599616361564480256,981
599616361572167808,2049
599616361579855360,2044
599616361587542784,1158
599616361595230336,1023
599616361602917888,992
599616361610605440,404
599616361618292992,87
599616361625980544,304
599616361633668096,739
599616361641355648,1548
599616361649043200,2439
599616361656730752,2621
599616361664418176,2153
599616361672105728,1368
599616361679793280,35
599616361687480832,-1456
599616361695168384,-2104
599616361702855936,-2040
599616361710543488,-2567
599616361718231040,-3950
599616361725918592,-3891
599616361733606144,-1780
599616361741293696,-1026
599616361748981120,-2252
599616361756668672,-2782
599616361764356224,-2557
599616361772043776,-2754
599616361779731328,-3018
599616361787418880,-3141
599616361795106432,-3879
599616361802793984,-5255
599616361810481536,-5349
599616361818169088,-3565
599616361825856640,-2319
599616361833544064,-2567
599616361841231616,-3104
599616361848919168,-3340
599616361856606720,-3458
599616361864294272,-3553
599616361871981824,-3527
599616361879669376,-3456
599616361887356928,-3420
599616361895044480,-3387
599616361902732032,-3375
599616361910419456,-3420
599616361918107008,-3834
599616361925794560,-4581
599616361933482112,-4172
599616361941169664,-2059
599616361948857216,-82
599616361956544768,638
599616361964232320,900
599616361971919872,1647
599616361979607424,3167
599616361987294976,5494
599616361994982400,9203
599616362002669952,13030
599616362010357504,13711
599616362018045056,11340
599616362025732608,8688
599616362033420160,6959
599616362041107712,5522
599616362048795264,3650
599616362056482816,1562
599616362064170368,2
599616362071857792,-917
599616362079545344,-2361
599616362087232896,-4208
599616362094920486,-4926
599616362102608384,-4815
599616362110296320,-4676
599616362117984128,-4191
599616362125672064,-3510
599616362133360000,-3451
599616362141047808,-4361
599616362148735744,-5352
599616362156423552,-5307
599616362164111488,-4818
599616362171799424,-4591
599616362179487232,-4182
599616362187175168,-3739
599616362194863104,-3591
599616362202550912,-3513
599616362210238848,-3468
599616362217926656,-3494
599616362225614592,-3446
599616362233302528,-3340
599616362240990336,-3328
599616362248678272,-3354
599616362256366208,-3262
599616362264054016,-3070
599616362271741952,-2992
599616362279429760,-3224
599616362287117696,-4054
599616362294805632,-4640
599616362302493440,-3900
599616362310181376,-2950
599616362317869312,-2226
599616362325557120,-1108
599616362333245056,-297
599616362340932864,217
599616362348620800,1368
599616362356308736,3085
599616362363996544,4836
599616362371684480,6208
599616362379372416,6907
599616362387060224,6912
599616362394748160,6380
599616362402435968,6030
599616362410123904,5345
599616362417811840,3070
599616362425499648,453
599616362433187584,-1153
599616362440875520,-2548
599616362448563328,-3990
599616362456251264,-4799
599616362463939200,-5248
599616362471627008,-5749
599616362479314944,-5974
599616362487002752,-5827
599616362494690688,-5647
599616362502378624,-5496
599616362510066432,-5250
599616362517754368,-4992
599616362525442304,-4815
599616362533130112,-4659
599616362540818048,-4522
599616362548505856,-4449
599616362556193792,-4383
599616362563881728,-4288
599616362571569536,-4179
599616362579257472,-4054
599616362586945408,-3957
599616362594633216,-3945
599616362602321152,-4023
599616362610008960,-4267
599616362617696896,-4770
599616362625384832,-5517
599616362633072640,-5744
599616362640760576,-4737
599616362648448512,-4040
599616362656136336,-4539
599616362663823872,-4513
599616362671511424,-4000
599616362679199104,-4042
599616362686886656,-3789
599616362694574336,-3056
599616362702261888,-2815
599616362709949568,-2924
599616362717637120,-2822
599616362725324800,-2709
599616362733012352,-2855
599616362740699904,-3723
599616362748387584,-5787
599616362756075136,-6156
599616362763762816,-3009
599616362771450368,-1096
599616362779138048,-1706
599616362786825600,-1139
599616362794513280,628
599616362802200832,2777
599616362809888512,6940
599616362817576064,12811
599616362825263616,14695
599616362832951296,10465
599616362840638848,9167
599616362848326528,12782
599616362856014080,12080
599616362863701760,8829
599616362871389312,8964
599616362879076992,8858
599616362886764544,6456
599616362894452096,3744
599616362902139776,475
599616362909827328,-3335
599616362917515008,-6149
599616362925202560,-7222
599616362932890240,-7026
599616362940577792,-6602
599616362948265472,-6409
599616362955953024,-6210
599616362963640704,-6028
599616362971328256,-5969
599616362979015808,-5881
599616362986703488,-5744
599616362994391040,-5659
599616363002078720,-5593
599616363009766272,-5489
599616363017453952,-5394
599616363025141504,-5307
599616363032829184,-5243
599616363040516736,-5297
599616363048204288,-5418
599616363055891968,-5732
599616363063579520,-6018
599616363071267200,-5503
599616363078954752,-4695
599616363086642432,-4061
599616363094329984,-3267
599616363102017664,-3009
599616363109705216,-3219
599616363117392896,-3009
599616363125080448,-2730
599616363132768000,-2761
599616363140455680,-2735
599616363148143232,-2600
599616363155830912,-2576
599616363163518464,-2567
599616363171206144,-2461
599616363178893696,-2373
599616363186581376,-2354
599616363194268928,-2373
599616363201956480,-2442
599616363209644160,-2442
599616363217331834,-2359
599616363225019392,-2461
599616363232706944,-2962
599616363240394624,-3226
599616363248082176,-2357
599616363255769856,-1288
599616363263457408,-1217
599616363271145088,-1425
599616363278832640,-1399
599616363286520320,-1579
599616363294207872,-1853
599616363301895552,-1931
599616363309583104,-1981
599616363317270656,-2073
599616363324958336,-2170
599616363332645888,-2347
599616363340333568,-2515
599616363348021120,-2602
599616363355708800,-2725
599616363363396352,-2903
599616363371084032,-3070
599616363378771584,-3262
599616363386459136,-3430
599616363394146816,-3399
599616363401834368,-3245
599616363409522048,-3226
599616363417209600,-3418
599616363424897280,-3773
599616363432584832,-4172
599616363440272512,-4465
599616363447960064,-4676
599616363455647744,-4898
599616363463335296,-5104
599616363471022848,-5198
599616363478710528,-5156
599616363486398080,-5044
599616363494085760,-4969
599616363501773312,-4962
599616363509460992,-4955
599616363517148544,-4877
599616363524836224,-4749
599616363532523776,-4593
599616363540211328,-4437
599616363547899008,-4300
599616363555586560,-4172
599616363563274240,-4044
599616363570961792,-3903
599616363578649472,-3749
599616363586337024,-3612
599616363594024704,-3487
599616363601712256,-3359
599616363609399936,-3236
599616363617087488,-3111
599616363624775040,-2983
599616363632462720,-2867
599616363640150272,-2758
599616363647837952,-2657
599616363655525504,-2557
599616363663213184,-2472
599616363670900736,-2383
599616363678588416,-2257
599616363686275968,-2160
599616363693963520,-2115
599616363701651200,-2044
599616363709338752,-1950
599616363717026432,-1879
599616363724713984,-1820
599616363732401664,-1761
599616363740089216,-1706
599616363747776896,-1654
599616363755464448,-1593
599616363763152128,-1529
599616363770839680,-1487
599616363778527340,-1449
599616363786214784,-1399
599616363793902208,-1349
599616363801589760,-1309
599616363809277184,-1267
599616363816964608,-1215
599616363824652160,-1172
599616363832339584,-1153
599616363840027136,-1118
599616363847714560,-1047
599616363855401984,-1007
599616363863089536,-966
599616363870776960,-891
599616363878464384,-843
599616363886151936,-820
599616363893839360,-782
599616363901526784,-751
599616363909214336,-754
599616363916901760,-791
599616363924589312,-822
599616363932276736,-749
599616363939964160,-482
599616363947651712,-134
599616363955339136,-2
599616363963026560,-141
599616363970714112,-319
599616363978401536,-430
599616363986088960,-520
599616363993776512,-560
599616364001463936,-541
599616364009151360,-524
599616364016838912,-517
599616364024526336,-496
599616364032213888,-479
599616364039901312,-475
599616364047588736,-460
599616364055276288,-439
599616364062963712,-418
599616364070651136,-401
599616364078338688,-399
599616364086026112,-401
599616364093713536,-385
599616364101401088,-364
599616364109088512,-354
599616364116776064,-345
599616364124463488,-330
599616364132150912,-312
599616364139838464,-295
599616364147525888,-281
599616364155213312,-260
599616364162900864,-245
599616364170588288,-238
599616364178275712,-224
599616364185963264,-200
599616364193650688,-186
599616364201338240,-177
599616364209025664,-163
599616364216713088,-156
599616364224400640,-146
599616364232088064,-139
599616364239775488,-134
599616364247463040,-130
599616364255150464,-127
599616364262837888,-122
599616364270525440,-113
599616364278212864,-108
599616364285900288,-104
599616364293587840,-96
599616364301275264,-92
599616364308962816,-92
599616364316650240,-92
599616364324337664,-96
599616364332025216,-99
599616364339712668,-96
599616364347399808,-89
599616364355086976,-78
599616364362774016,-68
599616364370461184,-59
599616364378148352,-47
599616364385835392,-37
599616364393522560,-35
599616364401209600,-33
599616364408896768,-28
599616364416583936,-23
599616364424270976,-23
599616364431958144,-21
599616364439645312,-16
599616364447332352,-16
599616364455019520,-49
599616364462706688,-122
599616364470393728,-153
599616364478080896,-18
599616364485768064,293
599616364493455104,562
599616364501142272,527
599616364508829312,278
599616364516516480,113
599616364524203648,42
599616364531890688,-35
599616364539577856,-80
599616364547265024,-70
599616364554952064,-66
599616364562639232,-66
599616364570326400,-59
599616364578013440,-59
599616364585700608,-59
599616364593387648,-52
599616364601074816,-52
599616364608761984,-54
599616364616449024,-56
599616364624136192,-61
599616364631823360,-66
599616364639510400,-68
599616364647197568,-68
599616364654884736,-66
599616364662571776,-59
599616364670258944,-56
599616364677946112,-44
599616364685633152,-26
599616364693320320,-11
599616364701007360,-9
599616364708694528,-7
599616364716381696,-7
599616364724068736,-9
599616364731755904,-9
599616364739443072,-9
599616364747130112,-9
599616364754817280,-7
599616364762504448,-4
599616364770191488,0
599616364777878656,2
599616364785565696,0
599616364793252864,-2
599616364800940032,-2
599616364808627072,-4
599616364816314240,-4
599616364824001408,-2
599616364831688448,2
599616364839375616,2
599616364847062784,2
599616364854749824,-4
599616364862436992,-11
599616364870124032,-18
599616364877811200,-26
599616364885498368,-26
599616364893185408,-16
599616364900872565,-4
599616364908560000,2
599616364916247424,9
599616364923934848,14
599616364931622144,14
599616364939309568,14
599616364946996992,11
599616364954684416,11
599616364962371840,16
599616364970059264,16
599616364977746560,14
599616364985433984,14
599616364993121408,2
599616365000808832,-56
599616365008496256,-122
599616365016183552,-89
599616365023870976,132
599616365031558400,468
599616365039245824,631
599616365046933248,491
599616365054620672,260
599616365062307968,113
599616365069995392,9
599616365077682816,-66
599616365085370240,-75
599616365093057664,-61
599616365100744960,-66
599616365108432384,-68
599616365116119808,-61
599616365123807232,-61
599616365131494656,-63
599616365139182080,-63
599616365146869376,-70
599616365154556800,-80
599616365162244224,-75
599616365169931648,-78
599616365177619072,-92
599616365185306368,-94
599616365192993792,-82
599616365200681216,-78
599616365208368640,-85
599616365216056064,-80
599616365223743488,-66
599616365231430784,-54
599616365239118208,-47
599616365246805632,-40
599616365254493056,-33
599616365262180480,-30
599616365269867776,-37
599616365277555200,-35
599616365285242624,-30
599616365292930048,-23
599616365300617472,-14
599616365308304896,-11
599616365315992192,-21
599616365323679616,-26
599616365331367040,-23
599616365339054464,-21
599616365346741888,-26
