599616644349098112,308
599616644356784640,376
599616644364471296,329
599616644372157824,75
599616644379844352,-301
599616644387530880,-650
599616644395217536,-965
599616644402904064,-1154
599616644410590592,-1144
599616644418277248,-1100
599616644425963776,-1192
599616644433650304,-1394
599616644441336832,-1663
599616644449023488,-2033
599616644456710016,-2419
599616644464396544,-2772
599616644472083200,-3147
599616644479769728,-3460
599616644487456256,-3689
599616644495142784,-3892
599616644502829440,-3835
599616644510515968,-3300
599616644518202496,-2657
599616644525889152,-2702
599616644533575680,-3621
599616644541262208,-4349
599616644548948736,-4238
599616644556635392,-3950
599616644564321920,-3790
599616644572008448,-3578
599616644579695104,-3496
599616644587381632,-3519
599616644595068160,-3394
599616644602754688,-3234
599616644610441344,-3161
599616644618127872,-3098
599616644625814400,-3008
599616644633501056,-2874
599616644641187584,-2697
599616644648874112,-2516
599616644656560640,-2332
599616644664247296,-2198
599616644671933824,-2134
599616644679620352,-2085
599616644687307008,-2077
599616644694993536,-2146
599616644702680064,-2231
599616644710366592,-2292
599616644718053248,-2372
599616644725739776,-2428
599616644733426304,-2400
599616644741112960,-2370
599616644748799488,-2403
599616644756486016,-2424
599616644764172544,-2381
599616644771859200,-2346
599616644779545728,-2367
599616644787232256,-2370
599616644794918912,-2320
599616644802605440,-2282
599616644810291968,-2245
599616644817978496,-2179
599616644825665152,-2136
599616644833351680,-2148
599616644841038208,-2150
599616644848724864,-2139
599616644856411392,-2141
599616644864097920,-2155
599616644871784448,-2188
599616644879471104,-2198
599616644887157632,-2167
599616644894844160,-2179
599616644902530732,-2205
599616644910217088,-2160
599616644917903488,-2129
599616644925589888,-2174
599616644933276416,-2183
599616644940962816,-2146
599616644948649216,-2183
599616644956335616,-2235
599616644964022016,-2214
599616644971708544,-2200
599616644979394944,-2195
599616644987081344,-2120
599616644994767744,-2042
599616645002454144,-2040
599616645010140672,-2115
599616645017827072,-2289
599616645025513472,-2374
599616645033199872,-2016
599616645040886272,-1253
599616645048572800,-638
599616645056259200,-810
599616645063945600,-1649
599616645071632000,-2198
599616645079318400,-2066
599616645087004928,-1759
599616645094691328,-1540
599616645102377728,-1258
599616645110064128,-857
599616645117750528,-544
599616645125436928,-447
599616645133123456,-457
599616645140809856,-466
599616645148496256,-492
599616645156182656,-600
599616645163869056,-817
599616645171555584,-937
599616645179241984,-869
599616645186928384,-902
599616645194614784,-1175
599616645202301184,-1392
599616645209987712,-1378
599616645217674112,-1342
599616645225360512,-1380
599616645233046912,-1291
599616645240733312,-1055
599616645248419840,-829
599616645256106240,-659
599616645263792640,-537
599616645271479040,-431
599616645279165440,-299
599616645286851968,-174
599616645294538368,-134
599616645302224768,-181
599616645309911168,-252
599616645317597568,-329
599616645325284096,-376
599616645332970496,-339
599616645340656896,-228
599616645348343296,-14
599616645356029696,216
599616645363716224,273
599616645371402624,120
599616645379089024,-160
599616645386775424,-494
599616645394461824,-829
599616645402148352,-1142
599616645409834752,-1441
599616645417521152,-1741
599616645425207552,-2016
599616645432893952,-2221
599616645440580480,-2351
599616645448266880,-2471
599616645455953280,-2633
599616645463639763,-2791
599616645471326080,-2907
599616645479012352,-3027
599616645486698624,-3180
599616645494384896,-3338
599616645502071168,-3491
599616645509757568,-3611
599616645517443840,-3715
599616645525130112,-3868
599616645532816384,-4075
599616645540502656,-4327
599616645548188928,-4561
599616645555875200,-4466
599616645563561472,-3906
599616645571247744,-3300
599616645578934144,-3390
599616645586620416,-4290
599616645594306688,-5001
599616645601992960,-4989
599616645609679232,-4869
599616645617365504,-4862
599616645625051776,-4773
599616645632738048,-4723
599616645640424320,-4726
599616645648110592,-4690
599616645655796992,-4697
599616645663483264,-4704
599616645671169536,-4671
599616645678855808,-4697
599616645686542080,-4716
599616645694228352,-4612
599616645701914624,-4488
599616645709600896,-4429
599616645717287168,-4344
599616645724973568,-4210
599616645732659840,-4113
599616645740346112,-4061
599616645748032384,-4023
599616645755718656,-3929
599616645763404928,-3788
599616645771091200,-3738
599616645778777472,-3722
599616645786463744,-3616
599616645794150144,-3543
599616645801836416,-3555
599616645809522688,-3510
599616645817208960,-3439
599616645824895232,-3409
599616645832581504,-3361
599616645840267776,-3281
599616645847954048,-3227
599616645855640320,-3204
599616645863326592,-3135
599616645871012992,-3032
599616645878699264,-2999
599616645886385536,-3003
599616645894071808,-2963
599616645901758080,-2921
599616645909444352,-2890
599616645917130624,-2855
599616645924816896,-2829
599616645932503168,-2841
599616645940189568,-2824
599616645947875840,-2730
599616645955562112,-2690
599616645963248384,-2747
599616645970934656,-2744
599616645978620928,-2648
599616645986307200,-2553
599616645993993472,-2483
599616646001679744,-2454
599616646009366144,-2428
599616646017052416,-2391
599616646024738624,-2353
599616646032425216,-2242
599616646040111872,-2108
599616646047798656,-2094
599616646055485312,-2073
599616646063171968,-1948
599616646070858752,-1889
599616646078545408,-1988
599616646086232192,-2056
599616646093918848,-1781
599616646101605504,-1057
599616646109292288,-315
599616646116978944,-313
599616646124665600,-1133
599616646132352384,-1757
599616646140039040,-1649
599616646147725824,-1455
599616646155412480,-1479
599616646163099136,-1441
599616646170785920,-1385
599616646178472576,-1397
599616646186159232,-1387
599616646193846016,-1378
599616646201532672,-1404
599616646209219456,-1397
599616646216906112,-1366
599616646224592768,-1364
599616646232279552,-1382
599616646239966208,-1378
599616646247652864,-1345
599616646255339648,-1314
599616646263026304,-1309
599616646270713088,-1305
599616646278399744,-1288
599616646286086400,-1267
599616646293773184,-1248
599616646301459840,-1239
599616646309146496,-1241
599616646316833280,-1248
599616646324519936,-1232
599616646332206720,-1203
599616646339893376,-1210
599616646347580032,-1239
599616646355266816,-1225
599616646362953472,-1177
599616646370640128,-1168
599616646378326912,-1182
599616646386013568,-1137
599616646393700352,-1053
599616646401387008,-1015
599616646409073664,-1015
599616646416760448,-1020
599616646424447104,-1008
599616646432133760,-956
599616646439820544,-925
599616646447507200,-932
599616646455193984,-949
599616646462880640,-958
599616646470567296,-930
599616646478254080,-897
599616646485940736,-897
599616646493627392,-871
599616646501314176,-831
599616646509000832,-826
599616646516687616,-808
599616646524374272,-760
599616646532060928,-727
599616646539747712,-695
599616646547434368,-678
599616646555121024,-702
599616646562807808,-706
599616646570494464,-633
599616646578181248,-499
599616646585868007,-301
599616646593554304,87
599616646601240576,765
599616646608926848,1635
599616646616613120,2504
599616646624299392,3340
599616646631985792,4299
599616646639672064,5338
599616646647358336,5967
599616646655044608,5418
599616646662730880,3505
599616646670417152,1550
599616646678103424,631
599616646685789696,143
599616646693475968,-402
599616646701162368,-758
599616646708848640,-937
599616646716534912,-1088
599616646724221184,-1180
599616646731907456,-1232
599616646739593728,-1265
599616646747280000,-1260
599616646754966272,-1272
599616646762652544,-1293
599616646770338816,-1267
599616646778025216,-1220
599616646785711488,-1147
599616646793397760,-1062
599616646801084032,-1046
599616646808770304,-991
599616646816456576,-923
599616646824142848,-982
599616646831829120,-1001
599616646839515392,-914
599616646847201792,-885
599616646854888064,-921
599616646862574336,-921
599616646870260608,-895
599616646877946880,-895
599616646885633152,-885
599616646893319424,-843
599616646901005696,-848
599616646908691968,-864
599616646916378368,-826
599616646924064640,-789
599616646931750912,-765
599616646939437184,-735
599616646947123456,-711
599616646954809728,-683
599616646962496000,-619
599616646970182272,-534
599616646977868544,-511
599616646985554816,-567
599616646993241216,-577
599616647000927488,-478
599616647008613760,-414
599616647016300032,-440
599616647023986304,-391
599616647031672576,-299
599616647039358848,-332
599616647047045120,-431
599616647054731392,-421
599616647062417792,-332
599616647070104064,-313
599616647077790336,-341
599616647085476608,-322
599616647093162880,-292
599616647100849152,-278
599616647108535424,-259
599616647116221696,-282
599616647123907968,-313
599616647131594368,-268
599616647139280640,-221
599616647146966868,-252
599616647154653440,-365
599616647162339968,-468
599616647170026368,-318
599616647177712896,273
599616647185399424,977
599616647193085952,949
599616647200772352,-106
599616647208458880,-1017
599616647216145408,-852
599616647223831936,-468
599616647231518336,-506
599616647239204864,-504
599616647246891392,-355
599616647254577920,-315
599616647262264320,-351
599616647269950848,-346
599616647277637376,-353
599616647285323904,-365
599616647293010304,-346
599616647300696832,-395
599616647308383360,-487
599616647316069888,-482
599616647323756288,-435
599616647331442816,-402
599616647339129344,-343
599616647346815872,-332
599616647354502272,-402
599616647362188800,-412
599616647369875328,-339
599616647377561728,-327
599616647385248256,-346
599616647392934784,-318
599616647400621312,-322
599616647408307712,-348
599616647415994240,-374
599616647423680768,-464
599616647431367296,-530
599616647439053696,-499
599616647446740224,-490
599616647454426752,-497
599616647462113280,-459
599616647469799680,-435
599616647477486208,-504
599616647485172736,-619
599616647492859264,-662
599616647500545664,-647
599616647508232192,-662
599616647515918720,-650
599616647523605248,-579
599616647531291648,-532
599616647538978176,-520
599616647546664704,-525
599616647554351232,-556
599616647562037632,-588
599616647569724160,-570
599616647577410688,-539
599616647585097088,-515
599616647592783616,-471
599616647600470144,-487
599616647608156672,-556
599616647615843072,-605
599616647623529600,-612
599616647631216128,-603
599616647638902656,-662
599616647646589056,-735
599616647654275584,-676
599616647661962112,-619
599616647669648640,-685
599616647677335040,-735
599616647685021568,-831
599616647692708096,-1071
599616647700394624,-1020
599616647708080990,-306
599616647715767552,716
599616647723454080,970
599616647731140480,-221
599616647738827008,-1484
599616647746513536,-1401
599616647754200064,-812
599616647761886464,-539
599616647769572992,-360
599616647777259520,-268
599616647784946048,-207
599616647792632448,-113
599616647800318976,-129
599616647808005504,-98
599616647815692032,40
599616647823378432,-7
599616647831064960,-131
599616647838751488,2
599616647846438016,174
599616647854124416,117
599616647861810944,117
599616647869497472,237
599616647877184000,134
599616647884870400,-7
599616647892556928,155
599616647900243456,240
599616647907929984,-16
599616647915616384,-167
599616647923302912,-127
599616647930989440,-287
599616647938675840,-485
599616647946362368,-400
599616647954048896,-369
599616647961735424,-596
599616647969421824,-699
599616647977108352,-619
599616647984794880,-659
599616647992481408,-727
599616648000167808,-567
599616648007854336,-424
599616648015540864,-525
599616648023227392,-619
599616648030913792,-633
599616648038600320,-671
599616648046286848,-603
599616648053973376,-466
599616648061659776,-482
599616648069346304,-539
599616648077032832,-494
599616648084719360,-501
599616648092405760,-548
599616648100092288,-459
599616648107778816,-372
599616648115465216,-398
599616648123151744,-376
599616648130838272,-313
599616648138524800,-341
599616648146211200,-407
599616648153897728,-454
599616648161584256,-459
599616648169270784,-339
599616648176957184,-242
599616648184643712,-341
599616648192330240,-426
599616648200016768,-400
599616648207703168,-412
599616648215389696,-556
599616648223076224,-603
599616648230762752,-32
599616648238449152,1024
599616648246135680,1573
599616648253822208,749
599616648261508736,-659
599616648269195108,-975
599616648276881408,-485
599616648284567680,-348
599616648292253952,-386
599616648299940224,-256
599616648307626496,-169
599616648315312896,-160
599616648322999168,-103
599616648330685440,-21
599616648338371712,49
599616648346057984,117
599616648353744256,183
599616648361430528,287
599616648369116800,405
599616648376803072,480
599616648384489472,560
599616648392175744,690
599616648399862016,817
599616648407548288,918
599616648415234560,1015
599616648422920832,1083
599616648430607104,1074
599616648438293376,1046
599616648445979648,1043
599616648453665920,1027
599616648461352320,996
599616648469038592,973
599616648476724864,975
599616648484411136,1015
599616648492097408,1017
599616648499783680,1013
599616648507469952,1121
599616648515156224,1213
599616648522842496,1170
599616648530528896,1107
599616648538215168,1079
599616648545901440,1062
599616648553587712,1041
599616648561273984,1135
599616648568960256,1331
599616648576646528,1357
599616648584332800,1267
599616648592019072,1293
599616648599705472,1359
599616648607391744,1411
599616648615078016,1526
599616648622764288,1606
599616648630450560,1609
599616648638136832,1693
599616648645823104,1849
599616648653509376,1929
599616648661195648,2007
599616648668881920,2127
599616648676568320,2160
599616648684254592,2186
599616648691940864,2315
599616648699627136,2419
599616648707313408,2490
599616648714999680,2633
599616648722685952,2739
599616648730372224,2758
599616648738058496,2770
599616648745744896,2775
599616648753431168,3112
599616648761117440,4134
599616648768803712,5168
599616648776489984,5185
599616648784176256,4455
599616648791862528,4104
599616648799548800,4400
599616648807235072,4876
599616648814921472,5244
599616648822607744,5409
599616648830293969,5614
599616648837980672,6057
599616648845667328,6528
599616648853354112,7119
599616648861040768,8363
599616648868727424,9831
599616648876414208,10573
599616648884100864,11299
599616648891787648,12995
599616648899474304,15330
599616648907160960,19297
599616648914847744,19297
599616648922534400,19297
599616648930221056,19297
599616648937907840,19297
599616648945594496,19297
599616648953281280,19297
599616648960967936,19297
599616648968654592,19297
599616648976341376,19297
599616648984028032,19297
599616648991714688,19297
599616648999401472,19297
599616649007088128,19297
599616649014774912,19297
599616649022461568,19297
599616649030148224,19297
599616649037835008,19297
599616649045521664,19297
599616649053208320,19297
599616649060895104,19297
599616649068581760,19297
599616649076268544,15796
599616649083955200,-1347
599616649091641856,-12215
599616649099328640,-16178
599616649107015296,-18388
599616649114701952,-19300
599616649122388736,-18845
599616649130075392,-18463
599616649137762176,-18265
599616649145448832,-17832
599616649153135488,-17497
599616649160822272,-17372
599616649168508928,-17236
599616649176195584,-17134
599616649183882368,-17068
599616649191569024,-16830
599616649199255808,-16484
599616649206942464,-16263
599616649214629120,-16161
599616649222315904,-16171
599616649230002560,-16380
599616649237689216,-16729
599616649245376000,-17130
599616649253062656,-17516
599616649260749440,-17933
599616649268436096,-18494
599616649276122752,-18977
599616649283809536,-19014
599616649291496192,-18498
599616649299182848,-17834
599616649306869632,-17735
599616649314556288,-18296
599616649322243072,-18732
599616649329929728,-18517
599616649337616384,-18058
599616649345303168,-17754
599616649352989824,-17438
599616649360676480,-17028
599616649368363264,-16682
599616649376049920,-16366
599616649383736704,-15949
599616649391423348,-15539
599616649399110016,-15193
599616649406796672,-14793
599616649414483456,-14333
599616649422170112,-13794
599616649429856768,-13169
599616649437543552,-12672
599616649445230208,-12345
599616649452916992,-12022
599616649460603648,-11798
599616649468290304,-11680
599616649475977088,-11445
599616649483663744,-11127
599616649491350400,-10794
599616649499037184,-10410
599616649506723840,-10090
599616649514410624,-9760
599616649522097280,-9346
599616649529783936,-9108
599616649537470720,-9002
599616649545157376,-8780
599616649552844032,-8568
599616649560530816,-8427
599616649568217472,-8267
599616649575904256,-8128
599616649583590912,-7989
599616649591277568,-7805
599616649598964352,-7630
599616649606651008,-7416
599616649614337664,-7192
599616649622024448,-7067
599616649629711104,-6935
599616649637397888,-6761
599616649645084544,-6632
599616649652771200,-6502
599616649660457984,-6368
599616649668144640,-6285
599616649675831296,-6170
599616649683518080,-6012
599616649691204736,-5927
599616649698891520,-5838
599616649706578176,-5696
599616649714264832,-5576
599616649721951616,-5390
599616649729638272,-5154
599616649737324928,-5015
599616649745011712,-4865
599616649752698368,-4638
599616649760385152,-4455
599616649768071808,-4261
599616649775758464,-4021
599616649783445248,-3835
599616649791131904,-3644
599616649798818560,-3383
599616649806505344,-3072
599616649814192000,-2299
599616649821878784,-367
599616649829565440,2714
599616649837252096,5934
599616649844938880,8234
599616649852625536,10055
599616649860312192,12847
599616649867998976,16425
599616649875685632,19297
599616649883372416,19297
599616649891059072,19297
599616649898745728,19297
599616649906432512,19297
599616649914119168,19297
599616649921805824,19297
599616649929492608,19297
599616649937179264,18861
599616649944866048,13143
599616649952552731,7327
599616649960239360,2520
599616649967926016,-1055
599616649975612800,-3833
599616649983299456,-5991
599616649990986112,-7491
599616649998672896,-8387
599616650006359552,-8936
599616650014046336,-9320
599616650021732992,-9480
599616650029419648,-9452
599616650037106432,-9331
599616650044793088,-9202
599616650052479744,-9112
599616650060166528,-8966
599616650067853184,-8790
599616650075539968,-8632
599616650083226624,-8457
599616650090913280,-8290
599616650098600064,-8128
599616650106286720,-7963
599616650113973376,-7833
599616650121660160,-7685
599616650129346816,-7468
599616650137033600,-7303
599616650144720256,-7230
599616650152406912,-7117
599616650160093696,-6990
599616650167780352,-6905
599616650175467008,-6799
599616650183153792,-6700
599616650190840448,-6636
599616650198527232,-6516
599616650206213888,-6335
599616650213900544,-6101
599616650221587328,-5805
599616650229273984,-5409
599616650236960640,-4834
599616650244647424,-4160
599616650252334080,-3336
599616650260020864,-2207
599616650267707520,-914
599616650275394176,530
599616650283080960,2330
599616650290767616,4471
599616650298454272,6898
599616650306141056,10290
599616650313827712,15360
599616650321514496,19297
599616650329201152,19297
599616650336887808,16854
599616650344574592,14745
599616650352261248,11822
599616650359947904,7402
599616650367634688,3654
599616650375321344,1755
599616650383008128,266
599616650390694784,-2009
599616650398381440,-4252
599616650406068224,-5338
599616650413754880,-5680
599616650421441536,-6054
599616650429128320,-6375
599616650436814976,-6495
599616650444501760,-6558
599616650452188416,-6629
599616650459875072,-6648
599616650467561856,-6608
599616650475248512,-6561
599616650482935168,-6514
599616650490621952,-6434
599616650498308608,-6335
599616650505995392,-6252
599616650513682110,-6198
599616650521368320,-6179
599616650529054592,-6104
599616650536740864,-5944
599616650544427136,-5852
599616650552113408,-5812
599616650559799808,-5724
599616650567486080,-5673
599616650575172352,-5637
599616650582858624,-5536
599616650590544896,-5446
599616650598231168,-5404
599616650605917440,-5359
599616650613603712,-5319
599616650621289984,-5258
599616650628976384,-5145
599616650636662656,-5053
599616650644348928,-4982
599616650652035200,-4912
599616650659721472,-4846
599616650667407744,-4754
599616650675094016,-4650
599616650682780288,-4561
599616650690466560,-4473
599616650698152832,-4405
599616650705839232,-4344
599616650713525504,-4264
599616650721211776,-4181
599616650728898048,-4099
599616650736584320,-4014
599616650744270592,-3943
599616650751956864,-3863
599616650759643136,-3750
599616650767329408,-3649
599616650775015808,-3573
599616650782702080,-3500
599616650790388352,-3416
599616650798074624,-3328
599616650805760896,-3237
599616650813447168,-3145
599616650821133440,-3065
599616650828819712,-2994
599616650836505984,-2937
599616650844192384,-2883
599616650851878656,-2803
599616650859564928,-2702
599616650867251200,-2610
599616650874937472,-2523
599616650882623744,-2454
599616650890310016,-2431
599616650897996288,-2464
599616650905682560,-2525
599616650913368832,-2393
599616650921055232,-1835
599616650928741504,-1100
599616650936427776,-914
599616650944114048,-1519
599616650951800320,-2061
599616650959486592,-1934
599616650967172864,-1566
599616650974859136,-1142
599616650982545408,-499
599616650990231808,181
599616650997918080,765
599616651005604352,1340
599616651013290624,1854
599616651020976896,2200
599616651028663168,2438
599616651036349440,2636
599616651044035712,2789
599616651051721984,2843
599616651059408384,2780
599616651067094656,2737
599616651074780971,2871
599616651082467456,3069
599616651090153984,3244
599616651097840640,3614
599616651105527168,4148
599616651113213696,4497
599616651120900224,4615
599616651128586880,4546
599616651136273408,4113
599616651143959936,3416
599616651151646592,2725
599616651159333120,2000
599616651167019648,1309
599616651174706176,815
599616651182392832,362
599616651190079360,-169
599616651197765888,-683
599616651205452544,-1142
599616651213139072,-1543
599616651220825600,-1870
599616651228512128,-2174
599616651236198784,-2457
599616651243885312,-2622
599616651251571840,-2666
599616651259258496,-2659
599616651266945024,-2553
599616651274631552,-2374
599616651282318080,-2219
599616651290004736,-2061
599616651297691264,-1877
599616651305377792,-1722
599616651313064448,-1587
599616651320750976,-1392
599616651328437504,-1166
599616651336124032,-1001
599616651343810688,-843
599616651351497216,-669
599616651359183744,-565
599616651366870400,-560
599616651374556928,-619
599616651382243456,-702
599616651389929984,-775
599616651397616640,-822
599616651405303168,-848
599616651412989696,-855
599616651420676352,-838
599616651428362880,-746
599616651436049408,-607
599616651443735936,-520
599616651451422592,-499
599616651459109120,-546
599616651466795648,-520
599616651474482304,-186
599616651482168832,273
599616651489855360,207
599616651497541888,-666
599616651505228544,-1552
599616651512915072,-1757
599616651520601600,-1717
599616651528288256,-1778
599616651535974784,-1776
599616651543661312,-1733
599616651551347840,-1748
599616651559034496,-1769
599616651566721024,-1731
599616651574407552,-1691
599616651582094208,-1682
599616651589780736,-1630
599616651597467264,-1536
599616651605153792,-1458
599616651612840448,-1387
599616651620526976,-1302
599616651628213504,-1215
599616651635900180,-1097
599616651643586560,-932
599616651651272960,-772
599616651658959360,-650
599616651666645888,-513
599616651674332288,-400
599616651682018688,-343
599616651689705088,-275
599616651697391488,-190
599616651705078016,-122
599616651712764416,-54
599616651720450816,4
599616651728137216,35
599616651735823616,40
599616651743510144,16
599616651751196544,-16
599616651758882944,-7
599616651766569344,37
599616651774255744,73
599616651781942272,124
599616651789628672,212
599616651797315072,299
599616651805001472,374
599616651812687872,421
599616651820374400,402
599616651828060800,386
599616651835747200,384
599616651843433600,351
599616651851120000,322
599616651858806400,376
599616651866492928,525
599616651874179328,760
599616651881865728,1064
599616651889552128,1352
599616651897238528,1559
599616651904925056,1703
599616651912611456,1776
599616651920297856,1764
599616651927984256,1663
599616651935670656,1413
599616651943357184,1024
599616651951043584,664
599616651958729984,445
599616651966416384,292
599616651974102784,139
599616651981789312,37
599616651989475712,-40
599616651997162112,-190
599616652004848512,-431
599616652012534912,-539
599616652020221440,-254
599616652027907840,289
599616652035594240,457
599616652043280640,-219
599616652050967040,-1088
599616652058653568,-1288
599616652066339968,-1161
599616652074026368,-1194
599616652081712768,-1206
599616652089399168,-1210
599616652097085696,-1359
599616652104772096,-1500
599616652112458496,-1545
599616652120144896,-1613
599616652127831296,-1715
599616652135517824,-1792
599616652143204224,-1870
599616652150890624,-1901
599616652158577024,-1856
599616652166263424,-1835
599616652173949952,-1854
599616652181636352,-1832
599616652189322752,-1788
599616652197009211,-1759
599616652204695808,-1741
599616652212382464,-1717
599616652220069248,-1665
599616652227755904,-1651
599616652235442560,-1745
599616652243129344,-1774
599616652250816000,-1637
599616652258502784,-1519
599616652266189440,-1531
599616652273876096,-1550
599616652281562880,-1503
599616652289249536,-1455
599616652296936192,-1399
599616652304622976,-1309
599616652312309632,-1286
599616652319996416,-1293
599616652327683072,-1229
599616652335369728,-1177
599616652343056512,-1189
599616652350743168,-1175
599616652358429824,-1123
599616652366116608,-1116
599616652373803264,-1123
599616652381490048,-1093
599616652389176704,-1086
599616652396863360,-1161
599616652404550144,-1246
599616652412236800,-1248
599616652419923456,-1248
599616652427610240,-1382
599616652435296896,-1564
599616652442983680,-1726
599616652450670336,-2026
599616652458356992,-2417
599616652466043776,-2709
599616652473730432,-3008
599616652481417088,-3390
599616652489103872,-3684
599616652496790528,-3873
599616652504477312,-4064
599616652512163968,-4144
599616652519850624,-3901
599616652527537408,-3573
599616652535224064,-3562
599616652542910720,-3675
599616652550597504,-3383
599616652558284160,-2506
599616652565970944,-1302
599616652573657600,-638
599616652581344256,-1354
599616652589031040,-2348
599616652596717696,-1976
599616652604404352,-1041
599616652612091136,-633
599616652619777792,-254
599616652627464576,230
599616652635151232,426
599616652642837888,414
599616652650524672,388
599616652658211328,296
599616652665897984,176
599616652673584768,124
599616652681271424,-30
599616652688958208,-348
599616652696644864,-534
599616652704331520,-574
599616652712018304,-669
599616652719704960,-739
599616652727391616,-737
599616652735078400,-716
599616652742765056,-678
599616652750451840,-711
599616652758138590,-777
599616652765825280,-775
599616652773511936,-838
599616652781198720,-975
599616652788885376,-1055
599616652796572032,-1123
599616652804258816,-1189
599616652811945472,-1213
599616652819632256,-1142
599616652827318912,-1024
599616652835005568,-984
599616652842692352,-914
599616652850379008,-730
599616652858065664,-574
599616652865752448,-428
599616652873439104,-235
599616652881125888,-139
599616652888812544,-127
599616652896499200,-25
599616652904185984,77
599616652911872640,91
599616652919559296,186
599616652927246080,442
599616652934932736,720
599616652942619520,1081
599616652950306176,1731
599616652957992832,2537
599616652965679616,3314
599616652973366272,4236
599616652981052928,5168
599616652988739712,5585
599616652996426368,5520
599616653004113152,5206
599616653011799808,4612
599616653019486464,3762
599616653027173248,2739
599616653034859904,1898
599616653042546560,1451
599616653050233344,1175
599616653057920000,965
599616653065606784,808
599616653073293440,735
599616653080980096,1166
599616653088666880,2473
599616653096353536,4280
599616653104040192,5915
599616653111726976,7404
599616653119413632,9916
599616653127100416,14357
599616653134787072,19297
599616653142473728,19297
599616653150160512,19297
599616653157847168,19297
599616653165533824,19297
599616653173220608,19297
599616653180907264,19297
599616653188594048,19297
599616653196280704,19297
599616653203967360,19297
599616653211654144,19297
599616653219340800,19297
599616653227027456,19297
599616653234714240,19297
599616653242400896,14258
599616653250087680,73
599616653257774336,-539
599616653265460992,2403
599616653273147776,-624
599616653280834432,-2744
599616653288521088,-2169
599616653296207872,-2827
599616653303894528,-3649
599616653311581312,-3272
599616653319267973,-2968
599616653326954624,-2838
599616653334641280,-2287
599616653342328064,-1660
599616653350014720,-1156
599616653357701376,-563
599616653365388160,68
599616653373074816,782
599616653380761600,2169
599616653388448256,5211
599616653396134912,11028
599616653403821696,16984
599616653411508352,16925
599616653419195008,13207
599616653426881792,14121
599616653434568448,17639
599616653442255232,18112
599616653449941888,17311
599616653457628544,16981
599616653465315328,16359
599616653473001984,15770
599616653480688640,15219
599616653488375424,14281
599616653496062080,13040
599616653503748864,11348
599616653511435520,8933
599616653519122176,5729
599616653526808960,2136
599616653534495616,-907
599616653542182272,-3114
599616653549869056,-4803
599616653557555712,-5833
599616653565242496,-6238
599616653572929152,-6542
599616653580615808,-6891
599616653588302592,-7098
599616653595989248,-7169
599616653603675904,-7253
599616653611362688,-7140
599616653619049344,-6580
599616653626736128,-6045
599616653634422784,-6198
599616653642109440,-6789
599616653649796224,-7067
599616653657482880,-6983
599616653665169536,-6891
599616653672856320,-6768
599616653680542976,-6566
599616653688229760,-6417
599616653695916416,-6295
599616653703603072,-6182
599616653711289856,-6134
599616653718976512,-6080
599616653726663168,-5977
599616653734349952,-5901
599616653742036608,-5835
599616653749723392,-5727
599616653757410048,-5623
599616653765096704,-5545
599616653772783488,-5425
599616653780470144,-5305
599616653788156800,-5253
599616653795843584,-5190
599616653803530240,-5107
599616653811217024,-5062
599616653818903680,-4994
599616653826590336,-4905
599616653834277120,-4839
599616653841963776,-4787
599616653849650432,-4723
599616653857337216,-4634
599616653865023872,-4551
599616653872710656,-4516
599616653880397352,-4483
599616653888083968,-4393
599616653895770624,-4323
599616653903457408,-4294
599616653911144064,-4226
599616653918830720,-4170
599616653926517504,-4151
599616653934204160,-4115
599616653941890944,-4108
599616653949577600,-4106
599616653957264256,-4049
599616653964951040,-3998
599616653972637696,-3967
599616653980324352,-3990
599616653988011136,-4033
599616653995697792,-3950
599616654003384576,-3866
599616654011071232,-3873
599616654018757888,-3849
599616654026444672,-3833
599616654034131328,-3840
599616654041817984,-3781
599616654049504768,-3753
599616654057191424,-3750
599616654064878208,-3658
599616654072564864,-3599
599616654080251520,-3611
599616654087938304,-3559
599616654095624960,-3465
599616654103311616,-3390
599616654110998400,-3378
599616654118685056,-3489
599616654126371840,-3571
599616654134058496,-3338
599616654141745152,-2716
599616654149431936,-2009
599616654157118592,-1854
599616654164805248,-2391
599616654172492032,-2876
599616654180178688,-2928
599616654187865472,-2857
599616654195552128,-2737
599616654203238784,-2589
599616654210925568,-2558
599616654218612224,-2572
599616654226298880,-2509
599616654233985664,-2428
599616654241672320,-2379
599616654249359104,-2320
599616654257045760,-2240
599616654264732416,-2183
599616654272419200,-2110
599616654280105856,-1882
599616654287792512,-1625
599616654295479296,-1538
599616654303165952,-1507
599616654310852736,-1444
599616654318539392,-1408
599616654326226048,-1373
599616654333912832,-1295
599616654341599488,-1253
599616654349286144,-1241
599616654356972928,-1159
599616654364659584,-1071
599616654372346368,-1071
599616654380033024,-1038
599616654387719680,-982
599616654395406464,-1034
599616654403093120,-1112
599616654410779776,-1173
599616654418466560,-1260
599616654426153216,-1357
599616654433840000,-1477
599616654441526731,-1635
599616654449213440,-1771
599616654456900096,-1830
599616654464586880,-1738
599616654472273536,-1463
599616654479960192,-1357
599616654487646976,-1578
599616654495333632,-1625
599616654503020416,-1524
599616654510707072,-1712
599616654518393728,-1995
599616654526080512,-2118
599616654533767168,-2209
599616654541453824,-2330
599616654549140608,-2492
599616654556827264,-2674
599616654564514048,-2754
599616654572200704,-2768
599616654579887360,-2848
599616654587574144,-2961
599616654595260800,-3029
599616654602947456,-3067
599616654610634240,-3135
599616654618320896,-3182
599616654626007680,-3112
599616654633694336,-2994
599616654641380992,-2956
599616654649067776,-2874
599616654656754432,-2447
599616654664441088,-1569
599616654672127872,-662
599616654679814528,-574
599616654687501312,-1385
599616654695187968,-2021
599616654702874624,-2054
599616654710561408,-2023
599616654718248064,-2002
599616654725934720,-1847
599616654733621504,-1745
599616654741308160,-1724
599616654748994944,-1696
599616654756681600,-1679
599616654764368256,-1686
599616654772055040,-1726
599616654779741696,-1816
599616654787428352,-1960
599616654795115136,-2158
599616654802801792,-2391
599616654810488576,-2744
599616654818175232,-3232
599616654825861888,-3663
599616654833548672,-3995
599616654841235328,-4367
599616654848921984,-4716
599616654856608768,-4942
599616654864295424,-5103
599616654871982208,-5213
599616654879668864,-5312
599616654887355520,-5442
599616654895042304,-5517
599616654902728960,-5520
599616654910415616,-5520
599616654918102400,-5482
599616654925789056,-5404
599616654933475840,-5355
599616654941162496,-5246
599616654948849152,-5025
599616654956535936,-4846
599616654964222592,-4716
599616654971909248,-4502
599616654979596032,-4245
599616654987282688,-4097
599616654994969472,-4019
599616655002656110,-3856
599616655010342784,-3689
599616655018029440,-3651
599616655025716224,-3635
599616655033402880,-3571
599616655041089536,-3536
599616655048776320,-3526
599616655056462976,-3508
599616655064149760,-3444
599616655071836416,-3295
599616655079523072,-3168
599616655087209856,-3142
599616655094896512,-3114
599616655102583168,-3046
599616655110269952,-3029
599616655117956608,-3015
599616655125643392,-2933
599616655133330048,-2878
599616655141016704,-2827
599616655148703488,-2723
599616655156390144,-2709
599616655164076800,-2815
599616655171763584,-2963
599616655179450240,-2952
599616655187137024,-2426
599616655194823680,-1493
599616655202510336,-918
599616655210197120,-1453
599616655217883776,-2499
599616655225570432,-2758
599616655233257216,-2433
599616655240943872,-2346
599616655248630656,-2360
599616655256317312,-2249
599616655264003968,-2198
599616655271690752,-2193
599616655279377408,-2092
599616655287064064,-2035
599616655294750848,-2103
599616655302437504,-2080
599616655310124288,-2009
599616655317810944,-2047
599616655325497600,-2044
599616655333184384,-2014
599616655340871040,-2049
599616655348557696,-2011
599616655356244480,-1957
599616655363931136,-2011
599616655371617920,-2063
599616655379304576,-2070
599616655386991232,-2054
599616655394678016,-2000
599616655402364672,-1894
599616655410051328,-1731
599616655417738112,-1536
599616655425424768,-1286
599616655433111552,-949
599616655440798208,-584
599616655448484864,-252
599616655456171648,14
599616655463858304,96
599616655471544960,-101
599616655479231744,-499
599616655486918400,-956
599616655494605184,-1293
599616655502291840,-1453
599616655509978496,-1554
599616655517665280,-1599
599616655525351936,-1576
599616655533038592,-1590
599616655540725376,-1675
599616655548412032,-1752
599616655556098816,-1788
599616655563785489,-1832
599616655571471744,-1884
599616655579158016,-1908
599616655586844288,-1929
599616655594530560,-1953
599616655602216832,-1929
599616655609903232,-1891
599616655617589504,-1880
599616655625275776,-1861
599616655632962048,-1828
599616655640648320,-1832
599616655648334592,-1840
599616655656020864,-1807
599616655663707136,-1769
599616655671393408,-1712
599616655679079808,-1651
599616655686766080,-1644
599616655694452352,-1668
599616655702138624,-1731
599616655709824896,-1842
599616655717511168,-1729
599616655725197440,-1128
599616655732883712,-315
599616655740569984,-58
599616655748256256,-808
599616655755942656,-1708
599616655763628928,-1807
599616655771315200,-1609
599616655779001472,-1627
599616655786687744,-1606
599616655794374016,-1507
599616655802060288,-1470
599616655809746560,-1455
599616655817432832,-1422
599616655825119232,-1406
599616655832805504,-1397
599616655840491776,-1368
599616655848178048,-1345
599616655855864320,-1328
599616655863550592,-1295
599616655871236864,-1267
599616655878923136,-1262
599616655886609408,-1239
599616655894295808,-1175
599616655901982080,-1144
599616655909668352,-1140
599616655917354624,-1095
599616655925040896,-1071
599616655932727168,-1088
599616655940413440,-1074
599616655948099712,-1038
599616655955785984,-1013
599616655963472256,-1022
599616655971158656,-1046
599616655978844928,-1043
599616655986531200,-1024
599616655994217472,-1010
599616656001903744,-1001
599616656009590016,-989
599616656017276288,-968
599616656024962560,-944
599616656032648832,-935
599616656040335232,-932
599616656048021504,-921
599616656055707776,-914
599616656063394048,-928
599616656071080320,-932
599616656078766592,-895
599616656086452864,-834
599616656094139136,-810
599616656101825408,-824
599616656109511808,-789
599616656117198080,-730
599616656124884350,-727
599616656132571008,-730
599616656140257664,-690
599616656147944448,-657
599616656155631104,-629
599616656163317760,-598
599616656171004544,-570
599616656178691200,-565
599616656186377984,-581
599616656194064640,-598
599616656201751296,-591
599616656209438080,-567
599616656217124736,-556
599616656224811392,-541
599616656232498176,-508
599616656240184832,-513
599616656247871616,-636
599616656255558272,-770
599616656263244928,-631
599616656270931712,-44
599616656278618368,633
599616656286305024,713
599616656293991808,44
599616656301678464,-605
599616656309365248,-678
599616656317051904,-584
599616656324738560,-539
599616656332425344,-409
599616656340112000,-355
599616656347798656,-405
599616656355485440,-388
599616656363172096,-318
599616656370858880,-278
599616656378545536,-280
599616656386232192,-273
599616656393918976,-240
599616656401605632,-228
599616656409292288,-219
599616656416979072,-179
599616656424665728,-150
599616656432352512,-153
599616656440039168,-148
599616656447725824,-110
599616656455412608,-75
599616656463099264,-84
599616656470785920,-98
599616656478472704,-91
599616656486159360,-84
599616656493846144,-68
599616656501532800,-54
599616656509219456,-70
599616656516906240,-91
599616656524592896,-94
599616656532279552,-110
599616656539966336,-127
599616656547652992,-122
599616656555339776,-101
599616656563026432,-80
599616656570713088,-75
599616656578399872,-77
599616656586086528,-51
599616656593773184,-18
599616656601459968,-2
599616656609146624,28
599616656616833408,75
599616656624520064,113
599616656632206720,155
599616656639893504,216
599616656647580160,270
599616656655266816,299
599616656662953600,313
599616656670640256,334
599616656678327040,358
599616656686013733,360
599616656693700352,362
599616656701387008,372
599616656709073792,376
599616656716760448,391
599616656724447104,379
599616656732133888,294
599616656739820544,202
599616656747507328,153
599616656755193984,103
599616656762880640,35
599616656770567424,-16
599616656778254080,-54
599616656785940736,-117
599616656793627520,-171
599616656801314176,-228
599616656809000960,-384
599616656816687616,-412
599616656824374272,49
599616656832061056,786
599616656839747712,1050
599616656847434368,351
599616656855121152,-600
599616656862807808,-775
599616656870494592,-490
599616656878181248,-374
599616656885867904,-285
599616656893554688,-164
599616656901241344,-164
599616656908928000,-183
599616656916614784,-169
599616656924301440,-186
599616656931988224,-207
599616656939674880,-200
599616656947361536,-176
599616656955048320,-150
599616656962734976,-98
599616656970421632,-11
599616656978108416,87
599616656985795072,171
599616656993481856,240
599616657001168512,285
599616657008855168,292
599616657016541952,259
599616657024228608,228
599616657031915264,228
599616657039602048,181
599616657047288704,63
599616657054975488,-68
599616657062662144,-171
599616657070348800,-306
599616657078035584,-501
599616657085722240,-678
599616657093408896,-812
599616657101095680,-961
599616657108782336,-1156
599616657116469120,-1305
599616657124155776,-1359
599616657131842432,-1448
599616657139529216,-1642
599616657147215872,-1823
599616657154902528,-1946
599616657162589312,-2077
599616657170275968,-2191
599616657177962752,-2271
599616657185649408,-2377
599616657193336064,-2424
599616657201022848,-2341
599616657208709504,-2304
599616657216396160,-2351
599616657224082944,-2304
599616657231769600,-2148
599616657239456384,-2033
599616657247143112,-1997
599616657254829440,-1948
599616657262515712,-1875
599616657270201984,-1825
599616657277888256,-1724
599616657285574528,-1578
599616657293260928,-1529
599616657300947200,-1514
599616657308633472,-1411
599616657316319744,-1309
599616657324006016,-1220
599616657331692288,-1083
599616657339378560,-996
599616657347064832,-975
599616657354751104,-1031
599616657362437504,-1241
599616657370123776,-1267
599616657377810048,-683
599616657385496320,299
599616657393182592,834
599616657400868864,101
599616657408555136,-1161
599616657416241408,-1545
599616657423927680,-1368
599616657431613952,-1373
599616657439300352,-1321
599616657446986624,-1177
599616657454672896,-1170
599616657462359168,-1168
599616657470045440,-1062
599616657477731712,-987
599616657485417984,-963
599616657493104256,-932
599616657500790528,-914
599616657508476928,-932
599616657516163200,-923
599616657523849472,-841
599616657531535744,-775
599616657539222016,-772
599616657546908288,-742
599616657554594560,-624
599616657562280832,-485
599616657569967104,-405
599616657577653504,-386
599616657585339776,-393
599616657593026048,-362
599616657600712320,-308
599616657608398592,-301
599616657616084864,-285
599616657623771136,-223
599616657631457408,-235
599616657639143680,-308
599616657646829952,-348
599616657654516352,-336
599616657662202624,-322
599616657669888896,-348
599616657677575168,-369
599616657685261440,-369
599616657692947712,-362
599616657700633984,-358
599616657708320256,-358
599616657716006528,-320
599616657723692928,-254
599616657731379200,-167
599616657739065472,-120
599616657746751744,-240
599616657754438016,-296
599616657762124288,-169
599616657769810560,-207
599616657777496832,-329
599616657785183104,-235
599616657792869504,-113
599616657800555776,-108
599616657808241973,-157
599616657815928576,-261
599616657823615232,-280
599616657831302016,-96
599616657838988672,9
599616657846675328,-141
599616657854362112,-252
599616657862048768,-131
599616657869735552,7
599616657877422208,-16
599616657885108864,-32
599616657892795648,157
599616657900482304,480
599616657908168960,902
599616657915855744,1229
599616657923542400,1312
599616657931229184,1663
599616657938915840,2473
599616657946602496,3159
599616657954289280,3149
599616657961975936,2431
599616657969662592,1809
599616657977349376,1743
599616657985036032,1708
599616657992722816,1627
599616658000409472,1759
599616658008096128,1814
599616658015782912,1741
599616658023469568,1774
599616658031156224,1804
599616658038843008,1792
599616658046529664,1785
599616658054216448,1703
599616658061903104,1675
599616658069589760,1738
599616658077276544,1715
599616658084963200,1653
599616658092649856,1660
599616658100336640,1665
599616658108023296,1625
599616658115710080,1564
599616658123396736,1484
599616658131083392,1448
599616658138770176,1498
599616658146456832,1500
599616658154143488,1399
599616658161830272,1293
599616658169516928,1239
599616658177203712,1175
599616658184890368,1081
599616658192577024,996
599616658200263808,911
599616658207950464,848
599616658215637120,808
599616658223323904,732
599616658231010560,647
599616658238697344,605
599616658246384000,570
599616658254070656,544
599616658261757440,501
599616658269444096,438
599616658277130752,440
599616658284817536,461
599616658292504192,431
599616658300190976,386
599616658307877632,374
599616658315564288,407
599616658323251072,442
599616658330937728,417
599616658338624384,384
599616658346311168,417
599616658353997824,473
599616658361684608,494
599616658369371352,478
599616658377058048,490
599616658384744704,591
599616658392431488,666
599616658400118144,664
599616658407804800,702
599616658415491584,720
599616658423178240,673
599616658430865024,666
599616658438551680,709
599616658446238336,716
599616658453925120,730
599616658461611776,749
599616658469298432,706
599616658476985216,600
599616658484671872,457
599616658492358656,428
599616658500045312,751
599616658507731968,1458
599616658515418752,2014
599616658523105408,1668
599616658530792064,841
599616658538478848,520
599616658546165504,574
599616658553852288,586
599616658561538944,683
599616658569225600,810
599616658576912384,819
599616658584599040,812
599616658592285696,838
599616658599972480,834
599616658607659136,819
599616658615345920,834
599616658623032576,859
599616658630719232,850
599616658638406016,848
599616658646092672,871
599616658653779328,843
599616658661466112,838
599616658669152768,874
599616658676839552,819
599616658684526208,786
599616658692212864,822
599616658699899648,770
599616658707586304,687
599616658715272960,676
599616658722959744,626
599616658730646400,546
599616658738333184,511
599616658746019840,480
599616658753706496,442
599616658761393280,367
599616658769079936,278
599616658776766592,259
599616658784453376,235
599616658792140032,207
599616658799826816,202
599616658807513472,169
599616658815200128,98
599616658822886912,65
599616658830573568,63
599616658838260224,-4
599616658845947008,-77
599616658853633664,-80
599616658861320448,-91
599616658869007104,-162
599616658876693760,-223
599616658884380544,-207
599616658892067200,-204
599616658899753856,-278
599616658907440640,-315
599616658915127296,-308
599616658922814080,-362
599616658930500731,-431
599616658938187392,-449
599616658945874048,-459
599616658953560832,-461
599616658961247488,-482
599616658968934144,-537
599616658976620928,-537
599616658984307584,-537
599616658991994368,-586
599616658999681024,-610
599616659007367680,-629
599616659015054464,-650
599616659022741120,-662
599616659030427776,-709
599616659038114560,-753
599616659045801216,-791
599616659053488000,-935
599616659061174656,-1140
599616659068861312,-1029
599616659076548096,-362
599616659084234752,318
599616659091921408,219
599616659099608192,-525
599616659107294848,-1038
599616659114981632,-1064
599616659122668288,-1043
599616659130354944,-1064
599616659138041728,-1015
599616659145728384,-1043
599616659153415040,-1140
599616659161101824,-1126
599616659168788480,-1090
599616659176475264,-1109
599616659184161920,-1114
599616659191848576,-1081
599616659199535360,-1095
599616659207222016,-1175
599616659214908672,-1142
599616659222595456,-1071
599616659230282112,-1126
599616659237968896,-1156
599616659245655552,-1112
599616659253342208,-1093
599616659261028992,-1064
599616659268715648,-1050
599616659276402304,-1152
599616659284089088,-1246
599616659291775744,-1185
599616659299462528,-1152
599616659307149184,-1196
599616659314835840,-1154
599616659322522624,-1152
599616659330209280,-1243
599616659337895936,-1234
599616659345582720,-1206
599616659353269376,-1291
599616659360956160,-1291
599616659368642816,-1182
599616659376329472,-1177
599616659384016256,-1258
599616659391702912,-1234
599616659399389568,-1135
599616659407076352,-1187
599616659414763008,-1342
599616659422449792,-1316
599616659430136448,-1177
599616659437823104,-1177
599616659445509888,-1199
599616659453196544,-1116
599616659460883200,-1086
599616659468569984,-1090
599616659476256640,-1048
599616659483943424,-1013
599616659491630110,-951
599616659499316736,-904
599616659507003392,-942
599616659514690176,-942
599616659522376832,-883
599616659530063488,-874
599616659537750272,-892
599616659545436928,-869
599616659553123712,-836
599616659560810368,-845
599616659568497024,-829
599616659576183808,-725
599616659583870464,-647
599616659591557120,-690
599616659599243904,-727
599616659606930560,-680
599616659614617344,-697
599616659622304000,-834
599616659629990656,-871
599616659637677440,-487
599616659645364096,303
599616659653050752,885
599616659660737536,530
599616659668424192,-315
599616659676110976,-586
599616659683797632,-433
599616659691484288,-414
599616659699171072,-386
599616659706857728,-310
599616659714544384,-303
599616659722231168,-280
599616659729917824,-223
599616659737604608,-237
599616659745291264,-233
599616659752977920,-122
599616659760664704,-113
599616659768351360,-230
599616659776038016,-197
599616659783724800,-139
599616659791411456,-235
599616659799098240,-275
599616659806784896,-207
599616659814471552,-188
599616659822158336,-183
599616659829844992,-164
599616659837531648,-179
599616659845218432,-186
599616659852905088,-193
599616659860591872,-212
599616659868278528,-221
599616659875965184,-266
599616659883651968,-322
599616659891338624,-358
599616659899025280,-409
599616659906712064,-457
599616659914398720,-466
599616659922085504,-518
599616659929772160,-588
599616659937458816,-581
599616659945145600,-617
599616659952832256,-749
599616659960518912,-758
599616659968205696,-678
599616659975892352,-692
599616659983579136,-687
599616659991265792,-636
599616659998952448,-636
599616660006639232,-588
599616660014325888,-508
599616660022012544,-537
599616660029699328,-546
599616660037385984,-452
599616660045072768,-369
599616660052759493,-322
599616660060445824,-268
599616660068132096,-209
599616660075818368,-136
599616660083504640,-37
599616660091190912,58
599616660098877312,110
599616660106563584,73
599616660114249856,-4
599616660121936128,18
599616660129622400,9
599616660137308672,-129
599616660144994944,-174
599616660152681216,-42
599616660160367488,381
599616660168053888,1689
599616660175740160,4306
599616660183426432,7103
599616660191112704,8495
599616660198798976,9138
599616660206485248,11197
599616660214171520,15273
599616660221857792,16873
599616660229544064,11949
599616660237230336,6396
599616660244916736,6120
599616660252603008,7159
599616660260289280,5986
599616660267975552,4080
599616660275661824,2143
599616660283348096,287
599616660291034368,-834
599616660298720640,-1453
599616660306406912,-1519
599616660314093312,-275
599616660321779584,1795
599616660329465856,3703
599616660337152128,5435
599616660344838400,7169
599616660352524672,8891
599616660360210944,10514
599616660367897216,11657
599616660375583488,12147
599616660383269888,12604
599616660390956160,13096
599616660398642432,12232
599616660406328704,9697
599616660414014976,6189
599616660421701248,1759
599616660429387520,-1689
599616660437073792,-2273
599616660444760064,-2259
599616660452446336,-3783
599616660460132736,-4900
599616660467819008,-4478
599616660475505280,-4391
599616660483191552,-4975
599616660490877824,-5138
599616660498564096,-5114
599616660506250368,-5322
599616660513936640,-5461
599616660521622912,-5470
599616660529309312,-5710
599616660536995584,-6097
599616660544681856,-6278
599616660552368128,-6417
599616660560054400,-6613
599616660567740672,-6665
599616660575426944,-6650
599616660583113216,-6674
599616660590799488,-6610
599616660598485888,-6467
599616660606172160,-6365
599616660613858354,-6318
599616660621544832,-6233
599616660629231360,-6050
599616660636917760,-5880
599616660644604288,-5788
599616660652290816,-5647
599616660659977344,-5397
599616660667663744,-5180
599616660675350272,-5039
599616660683036800,-4857
599616660690723328,-4695
599616660698409728,-4624
599616660706096256,-4497
599616660713782784,-4283
599616660721469312,-4078
599616660729155712,-3896
599616660736842240,-3680
599616660744528768,-3437
599616660752215296,-3263
599616660759901696,-3244
599616660767588224,-3291
599616660775274752,-3102
599616660782961280,-2471
599616660790647680,-1602
599616660798334208,-1293
599616660806020736,-2042
599616660813707264,-2886
599616660821393664,-2900
599616660829080192,-2685
599616660836766720,-2697
599616660844453120,-2652
599616660852139648,-2572
599616660859826176,-2582
599616660867512704,-2633
599616660875199104,-2697
599616660882885632,-2763
599616660890572160,-2855
599616660898258688,-2956
599616660905945088,-3013
599616660913631616,-3032
599616660921318144,-3053
599616660929004672,-3048
599616660936691072,-3029
599616660944377600,-3015
599616660952064128,-2968
599616660959750656,-2902
599616660967437056,-2857
599616660975123584,-2813
599616660982810112,-2761
599616660990496640,-2685
599616660998183040,-2575
599616661005869568,-2502
599616661013556096,-2523
599616661021242624,-2544
599616661028929024,-2473
599616661036615552,-2384
599616661044302080,-2374
599616661051988480,-2374
599616661059675008,-2297
599616661067361536,-2221
599616661075048064,-2219
599616661082734464,-2207
599616661090420992,-2136
599616661098107520,-2054
599616661105794048,-2007
599616661113480448,-2007
599616661121166976,-2002
599616661128853504,-1941
599616661136540032,-1865
599616661144226432,-1830
599616661151912960,-1790
599616661159599488,-1726
599616661167286016,-1689
599616661174972476,-1679
599616661182658944,-1637
599616661190345472,-1564
599616661198031872,-1519
599616661205718400,-1481
599616661213404928,-1455
599616661221091456,-1463
599616661228777856,-1463
599616661236464384,-1420
599616661244150912,-1368
599616661251837440,-1312
599616661259523840,-1246
599616661267210368,-1241
599616661274896896,-1276
599616661282583424,-1241
599616661290269824,-1180
599616661297956352,-1159
599616661305642880,-1144
599616661313329408,-1140
599616661321015808,-1116
599616661328702336,-1067
599616661336388864,-1104
599616661344075392,-1251
599616661351761792,-1276
599616661359448320,-921
599616661367134848,-221
599616661374821376,273
599616661382507776,-82
599616661390194304,-916
599616661397880832,-1222
599616661405567232,-1074
599616661413253760,-1031
599616661420940288,-991
599616661428626816,-869
599616661436313216,-841
599616661443999744,-862
599616661451686272,-819
599616661459372800,-775
599616661467059200,-765
599616661474745728,-737
599616661482432256,-699
599616661490118784,-695
599616661497805184,-676
599616661505491712,-638
599616661513178240,-610
599616661520864768,-586
599616661528551168,-558
599616661536237696,-539
599616661543924224,-537
599616661551610752,-511
599616661559297152,-471
599616661566983680,-478
599616661574670208,-508
599616661582356608,-478
599616661590043136,-433
599616661597729664,-473
599616661605416192,-504
599616661613102592,-449
599616661620789120,-464
599616661628475648,-551
599616661636162176,-525
599616661643848576,-433
599616661651535104,-417
599616661659221632,-428
599616661666908160,-400
599616661674594560,-369
599616661682281088,-343
599616661689967616,-315
599616661697654144,-294
599616661705340544,-240
599616661713027072,-174
599616661720713600,-160
599616661728400128,-160
599616661736086594,-110
599616661743772928,-35
599616661751459200,-23
599616661759145472,-82
599616661766831744,-96
599616661774518016,-58
599616661782204416,-28
599616661789890688,-14
599616661797576960,-28
599616661805263232,-51
599616661812949504,-51
599616661820635776,-30
599616661828322048,-7
599616661836008320,-32
599616661843694592,-89
599616661851380992,-106
599616661859067264,-103
599616661866753536,-153
599616661874439808,-190
599616661882126080,-141
599616661889812352,-110
599616661897498624,-141
599616661905184896,-141
599616661912871168,-122
599616661920557440,-160
599616661928243840,-261
599616661935930112,-278
599616661943616384,65
599616661951302656,793
599616661958988928,1422
599616661966675200,1116
599616661974361472,-23
599616661982047744,-596
599616661989734016,-285
599616661997420416,-77
599616662005106688,-51
599616662012792960,91
599616662020479232,106
599616662028165504,25
599616662035851776,101
599616662043538048,186
599616662051224320,77
599616662058910592,-84
599616662066596992,-136
599616662074283264,-202
599616662081969536,-417
599616662089655808,-650
599616662097342080,-765
599616662105028352,-888
599616662112714624,-1133
599616662120400896,-1368
599616662128087168,-1519
599616662135773440,-1684
599616662143459840,-1842
599616662151146112,-1913
599616662158832384,-1979
599616662166518656,-2004
599616662174204928,-1953
599616662181891200,-1915
599616662189577472,-1880
599616662197263744,-1823
599616662204950016,-1781
599616662212636416,-1715
599616662220322688,-1637
599616662228008960,-1552
599616662235695232,-1425
599616662243381504,-1274
599616662251067776,-1196
599616662258754048,-1154
599616662266440320,-1029
599616662274126592,-888
599616662281812992,-779
599616662289499264,-664
599616662297185455,-596
599616662304872064,-617
599616662312558720,-643
599616662320245504,-626
599616662327932160,-624
599616662335618816,-643
599616662343305600,-636
599616662350992256,-650
599616662358679040,-730
599616662366365696,-786
599616662374052352,-768
599616662381739136,-789
599616662389425792,-850
599616662397112448,-852
599616662404799232,-831
599616662412485888,-824
599616662420172672,-812
599616662427859328,-810
599616662435545984,-815
599616662443232768,-805
599616662450919424,-805
599616662458606080,-812
599616662466292864,-784
599616662473979520,-718
599616662481666304,-673
599616662489352960,-704
599616662497039616,-815
599616662504726400,-921
599616662512413056,-756
599616662520099712,-75
599616662527786496,812
599616662535473152,852
599616662543159936,-285
599616662550846592,-1170
599616662558533248,-1010
599616662566220032,-720
599616662573906688,-657
599616662581593344,-534
599616662589280128,-461
599616662596966784,-424
599616662604653568,-405
599616662612340224,-480
599616662620026880,-464
599616662627713664,-355
599616662635400320,-341
599616662643086976,-372
599616662650773760,-379
599616662658460416,-388
599616662666147200,-339
599616662673833856,-233
599616662681520512,-212
599616662689207296,-219
599616662696893952,-153
599616662704580608,-150
599616662712267392,-256
599616662719954048,-226
599616662727640832,-146
599616662735327488,-249
599616662743014144,-261
599616662750700928,-122
599616662758387584,-186
599616662766074240,-346
599616662773761024,-303
599616662781447680,-226
599616662789134464,-303
599616662796821120,-376
599616662804507776,-322
599616662812194560,-282
599616662819881216,-315
599616662827567872,-306
599616662835254656,-245
599616662842941312,-233
599616662850628096,-221
599616662858314834,-153
599616662866001536,-174
599616662873688192,-219
599616662881374976,-108
599616662889061632,-40
599616662896748288,-89
599616662904435072,-35
599616662912121728,94
599616662919808512,139
599616662927495168,122
599616662935181824,169
599616662942868608,228
599616662950555264,266
599616662958241920,426
599616662965928704,624
599616662973615360,702
599616662981302144,770
599616662988988800,890
599616662996675456,973
599616663004362240,1069
599616663012048896,1328
599616663019735552,1644
599616663027422336,1696
599616663035108992,1484
599616663042795776,1316
599616663050482432,1276
599616663058169088,1232
599616663065855872,1123
599616663073542528,911
599616663081229184,636
599616663088915968,614
599616663096602624,1081
599616663104289408,1693
599616663111976064,1708
599616663119662720,843
599616663127349504,-42
599616663135036160,-188
599616663142722816,-89
599616663150409600,-108
599616663158096256,-32
599616663165783040,4
599616663173469696,-94
599616663181156352,-136
599616663188843136,-108
599616663196529792,-96
599616663204216448,-77
599616663211903232,-61
599616663219589888,-30
599616663227276672,56
599616663234963328,292
599616663242649984,996
599616663250336768,2172
599616663258023424,3173
599616663265710080,3958
599616663273396864,5138
599616663281083520,6554
599616663288770304,7649
599616663296456960,8354
599616663304143616,8688
599616663311830400,8573
599616663319517056,8090
599616663327203712,7463
599616663334890496,6888
599616663342577152,6377
599616663350263936,5790
599616663357950592,5131
599616663365637248,4488
599616663373324032,3854
599616663381010688,3208
599616663388697344,2567
599616663396384128,1948
599616663404070784,1387
599616663411757568,892
599616663419444217,409
599616663427130624,-70
599616663434817024,-563
599616663442503424,-1086
599616663450189952,-1554
599616663457876352,-1887
599616663465562752,-2134
599616663473249152,-2365
599616663480935552,-2523
599616663488622080,-2579
599616663496308480,-2593
599616663503994880,-2593
599616663511681280,-2549
599616663519367680,-2473
599616663527054208,-2450
599616663534740608,-2436
599616663542427008,-2344
599616663550113408,-2247
599616663557799808,-2174
599616663565486336,-2094
599616663573172736,-2042
599616663580859136,-1986
599616663588545536,-1901
599616663596231936,-1856
599616663603918464,-1825
599616663611604864,-1755
599616663619291264,-1719
599616663626977664,-1675
599616663634664064,-1561
599616663642350464,-1571
599616663650036992,-1741
599616663657723392,-1769
599616663665409792,-1411
599616663673096192,-709
599616663680782592,-127
599616663688469120,-341
599616663696155520,-1168
599616663703841920,-1566
599616663711528320,-1380
599616663719214720,-1246
599616663726901248,-1220
599616663734587648,-1116
599616663742274048,-1041
599616663749960448,-1031
599616663757646848,-1017
599616663765333376,-984
599616663773019776,-940
599616663780706176,-885
599616663788392576,-852
599616663796078976,-843
599616663803765504,-829
599616663811451904,-763
599616663819138304,-680
599616663826824704,-666
599616663834511104,-666
599616663842197632,-605
599616663849884032,-546
599616663857570432,-527
599616663865256832,-523
599616663872943232,-525
599616663880629760,-508
599616663888316160,-487
599616663896002560,-499
599616663903688960,-504
599616663911375360,-492
599616663919061888,-499
599616663926748288,-508
599616663934434688,-494
599616663942121088,-475
599616663949807488,-471
599616663957494016,-454
599616663965180416,-419
599616663972866816,-407
599616663980553252,-409
599616663988239744,-388
599616663995926272,-351
599616664003612928,-332
599616664011299456,-315
599616664018985984,-294
599616664026672512,-282
599616664034359168,-263
599616664042045696,-247
599616664049732224,-233
599616664057418880,-212
599616664065105408,-186
599616664072791936,-160
599616664080478464,-221
599616664088165120,-329
599616664095851648,-299
599616664103538176,-223
599616664111224832,-247
599616664118911360,-247
599616664126597888,-190
599616664134284416,-179
599616664141971072,-235
599616664149657600,-280
599616664157344128,-254
599616664165030784,-256
599616664172717312,-351
599616664180403840,-362
599616664188090368,-299
599616664195777024,-336
599616664203463552,-409
599616664211150080,-473
599616664218836736,-673
599616664226523264,-791
599616664234209792,-428
599616664241896320,275
599616664249582976,770
599616664257269504,468
599616664264956032,-409
599616664272642688,-935
599616664280329216,-1024
599616664288015744,-1057
599616664295702272,-961
599616664303388928,-892
599616664311075456,-1057
599616664318761984,-1187
599616664326448640,-1135
599616664334135168,-1147
599616664341821696,-1236
599616664349508224,-1218
599616664357194880,-1144
599616664364881408,-1166
599616664372567936,-1220
599616664380254592,-1133
599616664387941120,-1020
599616664395627648,-1060
599616664403314176,-1081
599616664411000832,-1024
599616664418687360,-1008
599616664426373888,-968
599616664434060544,-914
599616664441747072,-932
599616664449433600,-899
599616664457120128,-777
599616664464806784,-789
599616664472493312,-914
599616664480179840,-923
599616664487866496,-914
599616664495553024,-1003
599616664503239552,-1062
599616664510926080,-1057
599616664518612736,-1060
599616664526299264,-1076
599616664533985792,-1109
599616664541672457,-1114
599616664549359104,-1074
599616664557045760,-1062
599616664564732544,-1046
599616664572419200,-1001
599616664580105856,-987
599616664587792640,-961
599616664595479296,-890
599616664603166080,-876
599616664610852736,-881
599616664618539392,-817
599616664626226176,-784
599616664633912832,-798
599616664641599488,-765
599616664649286272,-723
599616664656972928,-723
599616664664659712,-725
599616664672346368,-706
599616664680033024,-657
599616664687719808,-591
599616664695406464,-515
599616664703093120,-400
599616664710779904,-228
599616664718466560,-63
599616664726153344,54
599616664733840000,226
599616664741526656,485
599616664749213440,801
599616664756900096,1022
599616664764586752,954
599616664772273536,718
599616664779960192,534
599616664787646976,391
599616664795333632,499
599616664803020288,1373
599616664810707072,2725
599616664818393728,3467
599616664826080384,3135
599616664833767168,2638
599616664841453824,3065
599616664849140608,3844
599616664856827264,4078
599616664864513920,4162
599616664872200704,4556
599616664879887360,5157
599616664887574016,5682
599616664895260800,5894
599616664902947456,7350
599616664910634240,13671
599616664918320896,19297
599616664926007552,19297
599616664933694336,19297
599616664941380992,5154
599616664949067648,-581
599616664956754432,2961
599616664964441088,3234
599616664972127872,2179
599616664979814528,4996
599616664987501184,8189
599616664995187968,9727
599616665002874624,11287
599616665010561280,13242
599616665018248064,14559
599616665025934720,13301
599616665033621504,7595
599616665041308160,334
599616665048994816,-3135
599616665056681600,-3724
599616665064368256,-4867
599616665072054912,-5713
599616665079741696,-5479
599616665087428352,-5508
599616665095115136,-5838
599616665102801836,-5802
599616665110488448,-5647
599616665118175104,-5581
599616665125861888,-5449
599616665133548544,-5298
599616665141235200,-5213
599616665148921984,-5128
599616665156608640,-5018
599616665164295424,-4898
599616665171982080,-4773
599616665179668736,-4645
599616665187355520,-4499
599616665195042176,-4363
599616665202728832,-4292
599616665210415616,-4217
599616665218102272,-4033
599616665225789056,-3757
599616665233475712,-3517
599616665241162368,-3359
599616665248849152,-3194
599616665256535808,-3001
599616665264222464,-2791
599616665271909248,-2539
599616665279595904,-2311
599616665287282688,-2110
599616665294969344,-1872
599616665302656000,-1649
599616665310342784,-1430
599616665318029440,-1121
599616665325716096,-751
599616665333402880,-440
599616665341089536,-237
599616665348776320,-68
599616665356462976,204
599616665364149632,760
599616665371836416,1521
599616665379523072,1807
599616665387209728,942
599616665394896512,-400
599616665402583168,-956
599616665410269952,-994
599616665417956608,-1213
599616665425643264,-1357
599616665433330048,-1368
599616665441016704,-1479
599616665448703360,-1583
599616665456390144,-1646
599616665464076800,-1764
599616665471763584,-1847
599616665479450240,-1891
599616665487136896,-1976
599616665494823680,-2047
599616665502510336,-2066
599616665510196992,-2063
599616665517883776,-2037
599616665525570432,-2019
599616665533257216,-2016
599616665540943872,-1971
599616665548630528,-1908
599616665556317312,-1889
599616665564003968,-1868
599616665571690624,-1804
599616665579377408,-1771
599616665587064064,-1778
599616665594750848,-1771
599616665602437504,-1745
599616665610124160,-1717
599616665617810944,-1679
599616665625497600,-1651
599616665633184256,-1651
599616665640871040,-1642
599616665648557696,-1590
599616665656244480,-1564
599616665663931215,-1561
599616665671617920,-1481
599616665679304576,-1411
599616665686991360,-1422
599616665694678016,-1382
599616665702364672,-1305
599616665710051456,-1272
599616665717738112,-1227
599616665725424896,-1189
599616665733111552,-1208
599616665740798208,-1177
599616665748484992,-1079
599616665756171648,-1024
599616665763858304,-994
599616665771545088,-930
599616665779231744,-881
599616665786918528,-874
599616665794605184,-885
599616665802291840,-862
599616665809978624,-768
599616665817665280,-709
599616665825351936,-727
599616665833038720,-695
599616665840725376,-624
599616665848412160,-631
599616665856098816,-664
599616665863785472,-636
599616665871472256,-574
599616665879158912,-553
599616665886845568,-567
599616665894532352,-539
599616665902219008,-480
599616665909905792,-558
599616665917592448,-744
599616665925279104,-659
599616665932965888,-103
599616665940652544,647
599616665948339200,954
599616665956025984,240
599616665963712640,-777
599616665971399424,-918
599616665979086080,-614
599616665986772736,-572
599616665994459520,-506
599616666002146176,-369
599616666009832832,-367
599616666017519616,-376
599616666025206272,-296
599616666032893056,-249
599616666040579712,-249
599616666048266368,-174
599616666055953152,-54
599616666063639808,4
599616666071326464,58
599616666079013248,179
599616666086699904,282
599616666094386688,341
599616666102073344,449
599616666109760000,565
599616666117446784,633
599616666125133440,720
599616666132820096,812
599616666140506880,812
599616666148193536,749
599616666155880320,690
599616666163566976,600
599616666171253632,449
599616666178940416,249
599616666186627072,-28
599616666194313728,-308
599616666202000512,-485
599616666209687168,-664
599616666217373952,-942
599616666225060598,-1168
599616666232746880,-1286
599616666240433152,-1545
599616666248119424,-1971
599616666255805696,-2259
599616666263491968,-2360
599616666271178368,-2480
599616666278864640,-2655
599616666286550912,-2784
599616666294237184,-2803
599616666301923456,-2780
599616666309609728,-2860
599616666317296000,-2977
599616666324982272,-2928
599616666332668544,-2784
599616666340354944,-2652
599616666348041216,-2438
599616666355727488,-2198
599616666363413760,-2096
599616666371100032,-2070
599616666378786304,-1955
599616666386472576,-1764
599616666394158848,-1691
599616666401845120,-1750
599616666409531392,-1726
599616666417217792,-1566
599616666424904064,-1446
599616666432590336,-1463
599616666440276608,-1455
599616666447962880,-1368
599616666455649152,-1281
599616666463335424,-1187
599616666471021696,-1168
599616666478707968,-1371
599616666486394368,-1540
599616666494080640,-1156
599616666501766912,-235
599616666509453184,596
599616666517139456,433
599616666524825728,-883
599616666532512000,-1842
599616666540198272,-1623
599616666547884544,-1338
599616666555570944,-1364
599616666563257216,-1267
599616666570943488,-1225
599616666578629760,-1319
599616666586316032,-1298
599616666594002304,-1199
599616666601688576,-1189
599616666609374848,-1234
599616666617061120,-1232
599616666624747392,-1189
599616666632433792,-1159
599616666640120064,-1156
599616666647806336,-1104
599616666655492608,-1013
599616666663178880,-947
599616666670865152,-890
599616666678551424,-801
599616666686237696,-709
599616666693923968,-654
599616666701610368,-558
599616666709296640,-447
599616666716982912,-431
599616666724669184,-379
599616666732355456,-247
599616666740041728,-164
599616666747728000,-124
599616666755414272,-68
599616666763100544,18
599616666770786944,164
599616666778473216,287
599616666786159459,325
599616666793846144,348
599616666801532800,391
599616666809219584,405
599616666816906240,407
599616666824592896,438
599616666832279680,461
599616666839966336,454
599616666847653120,513
599616666855339776,591
599616666863026432,530
599616666870713216,492
599616666878399872,603
599616666886086528,716
599616666893773312,786
599616666901459968,822
599616666909146752,928
599616666916833408,1218
599616666924520064,1505
599616666932206848,1703
599616666939893504,2000
599616666947580160,2400
599616666955266944,2723
599616666962953600,2923
599616666970640384,3003
599616666978327040,3112
599616666986013696,3475
599616666993700480,3953
599616667001387136,4236
599616667009073792,4177
599616667016760576,3800
599616667024447232,3380
599616667032134016,3048
599616667039820672,2582
599616667047507328,2174
599616667055194112,2386
599616667062880768,3142
599616667070567424,3769
599616667078254208,3783
599616667085940864,3786
599616667093627648,4992
599616667101314304,7939
599616667109000960,12905
599616667116687744,19297
599616667124374400,19297
599616667132061056,19297
599616667139747840,19297
599616667147434496,16183
599616667155121280,8505
599616667162807936,8783
599616667170494592,8728
599616667178181376,6024
599616667185868032,4337
599616667193554688,3399
599616667201241472,1891
599616667208928128,718
599616667216614912,-21
599616667224301568,-942
599616667231988224,-1736
599616667239675008,-2158
599616667247361664,-2419
599616667255048320,-2636
599616667262735104,-2820
599616667270421760,-2987
599616667278108544,-3109
599616667285795200,-3213
599616667293481856,-3312
599616667301168640,-3373
599616667308855296,-3383
599616667316541952,-3361
599616667324228736,-3314
599616667331915392,-3263
599616667339602176,-3215
599616667347288838,-3189
599616667354975488,-3201
599616667362662144,-3199
599616667370348928,-3187
599616667378035584,-3182
599616667385722240,-3135
599616667393409024,-3072
599616667401095680,-3043
599616667408782464,-2977
599616667416469120,-2869
599616667424155776,-2798
599616667431842560,-2744
599616667439529216,-2683
599616667447215872,-2629
599616667454902656,-2553
599616667462589312,-2454
599616667470276096,-2374
599616667477962752,-2311
599616667485649408,-2242
599616667493336192,-2176
599616667501022848,-2087
599616667508709504,-1986
599616667516396288,-1931
599616667524082944,-1896
599616667531769728,-1814
599616667539456384,-1724
599616667547143040,-1670
599616667554829824,-1625
599616667562516480,-1571
599616667570203136,-1498
599616667577889920,-1427
599616667585576576,-1470
599616667593263360,-1625
599616667600950016,-1618
599616667608636672,-1196
599616667616323456,-454
599616667624010112,127
599616667631696768,-56
599616667639383552,-834
599616667647070208,-1283
599616667654756992,-1199
599616667662443648,-1088
599616667670130304,-1036
599616667677817088,-928
599616667685503744,-850
599616667693190400,-848
599616667700877184,-826
599616667708563840,-732
599616667716250624,-652
599616667723937280,-636
599616667731623936,-619
599616667739310720,-570
599616667746997376,-494
599616667754684032,-414
599616667762370816,-374
599616667770057472,-360
599616667777744256,-315
599616667785430912,-266
599616667793117568,-235
599616667800804352,-195
599616667808491008,-148
599616667816177664,-113
599616667823864448,-101
599616667831551104,-84
599616667839237888,-47
599616667846924544,-16
599616667854611200,-2
599616667862297984,11
599616667869984640,16
599616667877671296,35
599616667885358080,77
599616667893044736,98
599616667900731520,110
599616667908418217,155
599616667916104448,197
599616667923790720,209
599616667931476992,221
599616667939163264,235
599616667946849536,256
599616667954535936,289
599616667962222208,306
599616667969908480,315
599616667977594752,351
599616667985281024,384
599616667992967296,391
599616668000653568,405
599616668008339840,426
599616668016026112,433
599616668023712512,438
599616668031398784,449
599616668039085056,457
599616668046771328,475
599616668054457600,504
599616668062143872,530
599616668069830144,558
599616668077516416,572
599616668085202688,584
599616668092888960,614
599616668100575360,690
599616668108261632,815
599616668115947904,942
599616668123634176,1057
599616668131320448,1180
599616668139006720,1298
599616668146692992,1349
599616668154379264,1286
599616668162065536,1173
599616668169751936,1295
599616668177438208,1868
599616668185124480,2633
599616668192810752,2897
599616668200497024,2405
599616668208183296,1854
599616668215869568,1807
599616668223555840,1946
599616668231242112,2021
599616668238928512,2143
599616668246614784,2289
599616668254301056,2384
599616668261987328,2461
599616668269673600,2539
599616668277359872,2617
599616668285046144,2702
599616668292732416,2789
599616668300418688,2869
599616668308104960,2928
599616668315791360,3008
599616668323477632,3133
599616668331163904,3234
599616668338850176,3303
599616668346536448,3385
599616668354222720,3458
599616668361908992,3505
599616668369595264,3548
599616668377281536,3576
599616668384967936,3604
599616668392654208,3630
599616668400340480,3576
599616668408026752,3383
599616668415713024,3175
599616668423399296,3105
599616668431085568,3133
599616668438771840,3175
599616668446458112,3166
599616668454144512,3081
599616668461830784,2968
599616668469517078,2850
599616668477203712,2695
599616668484890368,2471
599616668492577152,2188
599616668500263808,1861
599616668507950464,1470
599616668515637248,1015
599616668523323904,544
599616668531010688,75
599616668538697344,-348
599616668546384000,-709
599616668554070784,-1053
599616668561757440,-1437
599616668569444096,-1785
599616668577130880,-1993
599616668584817536,-2205
599616668592504320,-2464
599616668600190976,-2603
599616668607877632,-2699
599616668615564416,-2798
599616668623251072,-2805
599616668630937728,-2815
599616668638624512,-2871
599616668646311168,-2867
599616668653997952,-2850
599616668661684608,-2959
599616668669371264,-3083
599616668677058048,-3128
599616668684744704,-3218
599616668692431360,-3392
599616668700118144,-3524
599616668707804800,-3585
599616668715491584,-3672
599616668723178240,-3868
599616668730864896,-4115
599616668738551680,-4134
599616668746238336,-3668
599616668753924992,-2919
599616668761611776,-2662
599616668769298432,-3354
599616668776985216,-4104
599616668784671872,-4071
599616668792358528,-3790
599616668800045312,-3682
599616668807731968,-3470
599616668815418624,-3215
599616668823105408,-3119
599616668830792064,-3050
599616668838478848,-2935
599616668846165504,-2822
599616668853852160,-2718
599616668861538944,-2664
599616668869225600,-2612
599616668876912256,-2509
599616668884599040,-2445
599616668892285696,-2405
599616668899972480,-2325
599616668907659136,-2249
599616668915345792,-2212
599616668923032576,-2176
599616668930719232,-2099
599616668938405888,-2011
599616668946092672,-1960
599616668953779328,-1924
599616668961466112,-1910
599616668969152768,-1889
599616668976839424,-1804
599616668984526208,-1677
599616668992212864,-1564
599616668999899520,-1477
599616669007586304,-1387
599616669015272960,-1333
599616669022959744,-1340
599616669030646457,-1331
599616669038333056,-1232
599616669046019712,-1104
599616669053706496,-1003
599616669061393152,-777
599616669069079808,-308
599616669076766592,360
599616669084453248,1286
599616669092140032,2139
599616669099826688,2469
599616669107513344,2699
599616669115200128,3182
599616669122886784,3522
599616669130573440,3658
599616669138260224,4019
599616669145946880,4641
599616669153633664,5161
599616669161320320,5479
599616669169006976,5854
599616669176693760,6528
599616669184380416,7381
599616669192067072,8599
599616669199753856,11923
599616669207440512,17085
599616669215127296,18703
599616669222813952,14404
599616669230500608,9551
599616669238187392,8639
599616669245874048,9435
599616669253560704,8403
599616669261247488,5986
599616669268934144,3281
599616669276620928,195
599616669284307584,-2146
599616669291994240,-2784
599616669299681024,-2469
599616669307367680,-1995
599616669315054336,-1844
599616669322741120,-2878
599616669330427776,-4605
599616669338114560,-5312
599616669345801216,-5211
599616669353487872,-5338
599616669361174656,-5388
599616669368861312,-5223
599616669376547968,-5232
599616669384234752,-5239
599616669391921408,-5006
599616669399608192,-4756
599616669407294848,-4610
599616669414981504,-4410
599616669422668288,-4082
599616669430354944,-3691
599616669438041600,-3232
599616669445728384,-2820
599616669453415040,-2638
599616669461101824,-2610
599616669468788480,-2598
599616669476475136,-2685
599616669484161920,-2883
599616669491848576,-3060
599616669499535232,-3187
599616669507222016,-3317
599616669514908672,-3430
599616669522595456,-3519
599616669530282112,-3597
599616669537968768,-3635
599616669545655552,-3637
599616669553342208,-3632
599616669561028864,-3623
599616669568715648,-3576
599616669576402304,-3482
599616669584089088,-3373
599616669591775840,-3291
599616669599462144,-3225
599616669607148416,-3131
599616669614834688,-3013
599616669622520960,-2942
599616669630207232,-2860
599616669637893632,-2650
599616669645579904,-2419
599616669653266176,-2322
599616669660952448,-2282
599616669668638720,-2186
599616669676324992,-2042
599616669684011264,-1955
599616669691697536,-1946
599616669699383808,-1891
599616669707070208,-1807
599616669714756480,-1764
599616669722442752,-1724
599616669730129024,-1705
599616669737815296,-1686
599616669745501568,-1602
599616669753187840,-1552
599616669760874112,-1597
599616669768560384,-1618
599616669776246656,-1592
599616669783933056,-1571
599616669791619328,-1517
599616669799305600,-1455
599616669806991872,-1460
599616669814678144,-1465
599616669822364416,-1446
599616669830050688,-1479
599616669837736960,-1576
599616669845423232,-1623
599616669853109632,-1361
599616669860795904,-643
599616669868482176,193
599616669876168448,242
599616669883854720,-810
599616669891540992,-1660
599616669899227264,-1526
599616669906913536,-1300
599616669914599808,-1331
599616669922286208,-1246
599616669929972480,-1154
599616669937658752,-1170
599616669945345024,-1137
599616669953031296,-1079
599616669960717568,-1081
599616669968403840,-1048
599616669976090112,-980
599616669983776384,-961
599616669991462656,-942
599616669999149056,-911
599616670006835328,-918
599616670014521600,-899
599616670022207872,-831
599616670029894144,-784
599616670037580416,-765
599616670045266688,-716
599616670052952960,-704
599616670060639232,-760
599616670068325632,-758
599616670076011904,-727
599616670083698176,-756
599616670091384448,-770
599616670099070720,-737
599616670106756992,-727
599616670114443264,-727
599616670122129536,-730
599616670129815808,-732
599616670137502208,-699
599616670145188480,-669
599616670152874701,-671
599616670160561408,-654
599616670168248064,-612
599616670175934848,-574
599616670183621504,-544
599616670191308160,-541
599616670198994944,-523
599616670206681600,-459
599616670214368384,-464
599616670222055040,-466
599616670229741696,-365
599616670237428480,-280
599616670245115136,-247
599616670252801792,-204
599616670260488576,-150
599616670268175232,-40
599616670275862016,75
599616670283548672,94
599616670291235328,141
599616670298922112,280
599616670306608768,376
599616670314295424,400
599616670321982208,417
599616670329668864,438
599616670337355648,475
599616670345042304,527
599616670352728960,624
599616670360415744,772
599616670368102400,831
599616670375789056,739
599616670383475840,638
599616670391162496,537
599616670398849280,313
599616670406535936,157
599616670414222592,485
599616670421909376,1342
599616670429596032,2030
599616670437282688,1521
599616670444969472,40
599616670452656128,-819
599616670460342912,-756
599616670468029568,-758
599616670475716224,-932
599616670483403008,-973
599616670491089664,-1043
599616670498776320,-1286
599616670506463104,-1554
599616670514149760,-1759
599616670521836544,-1917
599616670529523200,-2026
599616670537209856,-2094
599616670544896640,-2136
599616670552583296,-2080
599616670560269952,-1830
599616670567956736,-1569
599616670575643392,-1559
599616670583330176,-1665
599616670591016832,-1672
599616670598703488,-1635
599616670606390272,-1611
599616670614076928,-1635
599616670621763584,-1639
599616670629450368,-1564
599616670637137024,-1512
599616670644823808,-1524
599616670652510464,-1467
599616670660197120,-1366
599616670667883904,-1345
599616670675570560,-1359
599616670683257216,-1326
599616670690944000,-1283
599616670698630656,-1324
599616670706317440,-1437
599616670714004080,-1521
599616670721690368,-1557
599616670729376640,-1590
599616670737062912,-1627
599616670744749184,-1639
599616670752435456,-1658
599616670760121856,-1658
599616670767808128,-1564
599616670775494400,-1517
599616670783180672,-1540
599616670790866944,-1467
599616670798553216,-1364
599616670806239488,-1321
599616670813925760,-1328
599616670821612032,-1349
599616670829298432,-1305
599616670836984704,-1210
599616670844670976,-1182
599616670852357248,-1196
599616670860043520,-1166
599616670867729792,-1121
599616670875416064,-1107
599616670883102336,-1097
599616670890788608,-1003
599616670898474880,-779
599616670906161280,-523
599616670913847552,-336
599616670921533824,-226
599616670929220096,-134
599616670936906368,-9
599616670944592640,44
599616670952278912,-96
599616670959965184,-122
599616670967651456,438
599616670975337856,1479
599616670983024128,2231
599616670990710400,1842
599616670998396672,673
599616671006082944,153
599616671013769216,435
599616671021455488,612
599616671029141760,654
599616671036828032,636
599616671044514432,426
599616671052200704,384
599616671059886976,523
599616671067573248,518
599616671075259520,546
599616671082945792,805
599616671090632064,1038
599616671098318336,1185
599616671106004608,1554
599616671113690880,2202
599616671121377280,2952
599616671129063552,3665
599616671136749824,4186
599616671144436096,4386
599616671152122368,4386
599616671159808640,4443
599616671167494912,4542
599616671175181184,4594
599616671182867456,4688
599616671190553856,4841
599616671198240128,5062
599616671205926400,5581
599616671213612672,6615
599616671221298944,8222
599616671228985216,10738
599616671236671488,14475
599616671244357760,19116
599616671252044032,19297
599616671259730432,19297
599616671267416704,19297
599616671275102941,19297
599616671282789248,15829
599616671290475520,9956
599616671298161792,7727
599616671305848064,4973
599616671313534336,2332
599616671321220736,1272
599616671328907008,379
599616671336593280,-662
599616671344279552,-1140
599616671351965824,-1411
599616671359652096,-1790
599616671367338368,-2004
599616671375024640,-2092
599616671382710912,-2188
599616671390397312,-2191
599616671398083584,-2160
599616671405769856,-2198
599616671413456128,-2183
599616671421142400,-2108
599616671428828672,-2068
599616671436514944,-2014
599616671444201216,-1905
599616671451887488,-1797
599616671459573760,-1670
599616671467260160,-1529
599616671474946432,-1455
599616671482632704,-1385
599616671490318976,-1276
599616671498005248,-1288
599616671505691520,-1437
599616671513377792,-1394
599616671521064064,-895
599616671528750336,-98
599616671536436736,355
599616671544123008,-56
599616671551809280,-834
599616671559495552,-1126
599616671567181824,-1020
599616671574868096,-937
599616671582554368,-871
599616671590240640,-810
599616671597926912,-782
599616671605613312,-739
599616671613299584,-697
599616671620985856,-662
599616671628672128,-614
599616671636358400,-579
599616671644044672,-560
599616671651730944,-532
599616671659417216,-490
599616671667103488,-449
599616671674789760,-431
599616671682476160,-414
599616671690162432,-379
599616671697848704,-348
599616671705534976,-336
599616671713221248,-332
599616671720907520,-318
599616671728593792,-308
599616671736280064,-318
599616671743966336,-322
599616671751652736,-320
599616671759339008,-313
599616671767025280,-299
599616671774711552,-294
599616671782397824,-301
599616671790084096,-280
599616671797770368,-233
599616671805456640,-221
599616671813142912,-233
599616671820829312,-228
599616671828515584,-204
599616671836201802,-193
599616671843888128,-188
599616671851574400,-186
599616671859260672,-188
599616671866946944,-183
599616671874633216,-148
599616671882319616,-113
599616671890005888,-127
599616671897692160,-153
599616671905378432,-148
599616671913064704,-122
599616671920750976,-103
599616671928437248,-103
599616671936123520,-113
599616671943809792,-106
599616671951496192,-98
599616671959182464,-113
599616671966868736,-82
599616671974555008,-23
599616671982241280,-37
599616671989927552,-96
599616671997613824,-106
599616672005300096,-84
599616672012986368,-94
599616672020672640,-89
599616672028359040,-42
599616672036045312,-37
599616672043731584,-103
599616672051417856,-249
599616672059104128,-412
599616672066790400,-263
599616672074476672,369
599616672082162944,1048
599616672089849216,1093
599616672097535616,487
599616672105221888,-89
599616672112908160,-204
599616672120594432,-131
599616672128280704,-153
599616672135966976,-129
599616672143653248,-32
599616672151339520,4
599616672159025792,25
599616672166712192,65
599616672174398464,65
599616672182084736,65
599616672189771008,98
599616672197457280,115
599616672205143552,131
599616672212829824,157
599616672220516096,164
599616672228202368,171
599616672235888640,212
599616672243575040,242
599616672251261312,242
599616672258947584,285
599616672266633856,343
599616672274320128,332
599616672282006400,282
599616672289692672,282
599616672297378944,329
599616672305065216,334
599616672312751616,306
599616672320437888,313
599616672328124160,339
599616672335810432,346
599616672343496704,348
599616672351182976,336
599616672358869248,325
599616672366555520,360
599616672374241792,395
599616672381928192,388
599616672389614464,384
599616672397300663,400
599616672404987264,405
599616672412673920,393
599616672420360704,407
599616672428047360,449
599616672435734016,468
599616672443420800,457
599616672451107456,449
599616672458794240,457
599616672466480896,461
599616672474167552,442
599616672481854336,435
599616672489540992,475
599616672497227648,506
599616672504914432,534
599616672512601088,579
599616672520287872,588
599616672527974528,563
599616672535661184,572
599616672543347968,603
599616672551034624,596
599616672558721280,584
599616672566408064,652
599616672574094720,779
599616672581781504,885
599616672589468160,916
599616672597154816,850
599616672604841600,725
599616672612528256,763
599616672620214912,1213
599616672627901696,1948
599616672635588352,2363
599616672643275136,2033
599616672650961792,1463
599616672658648448,1340
599616672666335232,1467
599616672674021888,1481
599616672681708544,1470
599616672689395328,1496
599616672697081984,1503
599616672704768768,1496
599616672712455424,1458
599616672720142080,1359
599616672727828864,1243
599616672735515520,1119
599616672743202176,970
599616672750888960,791
599616672758575616,600
599616672766262400,447
599616672773949056,329
599616672781635712,162
599616672789322496,-18
599616672797009152,-124
599616672804695808,-249
599616672812382592,-473
599616672820069248,-650
599616672827756032,-737
599616672835442688,-826
599616672843129344,-864
599616672850816128,-758
599616672858502784,-607
599616672866189440,-513
599616672873876224,-409
599616672881562880,-310
599616672889249664,-261
599616672896936320,-54
599616672904622976,372
599616672912309760,676
599616672919996416,713
599616672927683072,577
599616672935369856,228
599616672943056512,-296
599616672950743296,-735
599616672958430042,-980
599616672966116352,-1175
599616672973802624,-1357
599616672981488896,-1531
599616672989175168,-1710
599616672996861440,-1774
599616673004547840,-1764
599616673012234112,-1835
599616673019920384,-1931
599616673027606656,-1948
599616673035292928,-1913
599616673042979200,-1875
599616673050665472,-1844
599616673058351744,-1821
599616673066038016,-1802
599616673073724416,-1807
599616673081410688,-1832
599616673089096960,-1884
599616673096783232,-1971
599616673104469504,-2035
599616673112155776,-2068
599616673119842048,-2127
599616673127528320,-2179
599616673135214592,-2275
599616673142900864,-2483
599616673150587264,-2537
599616673158273536,-2103
599616673165959808,-1390
599616673173646080,-1107
599616673181332352,-1722
599616673189018624,-2572
599616673196704896,-2739
599616673204391168,-2542
599616673212077440,-2513
599616673219763840,-2457
599616673227450112,-2346
599616673235136384,-2367
599616673242822656,-2381
599616673250508928,-2306
599616673258195200,-2249
599616673265881472,-2186
599616673273567744,-2108
599616673281254016,-2068
599616673288940416,-2037
599616673296626688,-2016
599616673304312960,-2026
599616673311999232,-1993
599616673319685504,-1927
599616673327371776,-1880
599616673335058048,-1863
599616673342744320,-1887
599616673350430592,-1851
599616673358116992,-1745
599616673365803264,-1733
599616673373489536,-1795
599616673381175808,-1788
599616673388862080,-1752
599616673396548352,-1733
599616673404234624,-1672
599616673411920896,-1566
599616673419607168,-1432
599616673427293440,-1201
599616673434979840,-874
599616673442666112,-499
599616673450352384,47
599616673458038656,831
599616673465724928,1835
599616673473411200,3091
599616673481097472,3998
599616673488783744,4129
599616673496470016,4228
599616673504156416,4711
599616673511842688,5037
599616673519528907,5095
599616673527215616,5310
599616673534902272,5635
599616673542589056,5878
599616673550275712,6379
599616673557962368,7593
599616673565649152,9412
599616673573335808,11426
599616673581022592,14821
599616673588709248,19297
599616673596395904,19297
599616673604082688,17525
599616673611769344,7758
599616673619456000,3482
599616673627142784,6766
599616673634829440,11977
599616673642516224,11117
599616673650202880,3745
599616673657889536,-3555
599616673665576320,-6398
599616673673262976,-6493
599616673680949632,-7124
599616673688636416,-7972
599616673696323072,-7713
599616673704009856,-6957
599616673711696512,-6773
599616673719383168,-7675
599616673727069952,-8679
599616673734756608,-8500
599616673742443264,-7861
599616673750130048,-7524
599616673757816704,-7164
599616673765503488,-6869
599616673773190144,-6728
599616673780876800,-6490
599616673788563584,-6156
599616673796250240,-5812
599616673803936896,-5442
599616673811623680,-5046
599616673819310336,-4662
599616673826997120,-4316
599616673834683776,-3955
599616673842370432,-3602
599616673850057216,-3456
599616673857743872,-3479
599616673865430528,-3453
599616673873117312,-3453
599616673880803968,-3562
599616673888490752,-3597
599616673896177408,-3531
599616673903864064,-3489
599616673911550848,-3385
599616673919237504,-3135
599616673926924160,-2942
599616673934610944,-2869
599616673942297600,-2763
599616673949984384,-2645
599616673957671040,-2553
599616673965357696,-2454
599616673973044480,-2377
599616673980731136,-2306
599616673988417792,-2233
599616673996104576,-2169
599616674003791232,-2080
599616674011478016,-2030
599616674019164672,-2033
599616674026851328,-1967
599616674034538112,-1882
599616674042224768,-1858
599616674049911424,-1818
599616674057598208,-1745
599616674065284864,-1701
599616674072971648,-1651
599616674080658286,-1578
599616674088344576,-1531
599616674096030848,-1510
599616674103717120,-1481
599616674111403392,-1425
599616674119089664,-1373
599616674126776064,-1368
599616674134462336,-1335
599616674142148608,-1281
599616674149834880,-1283
599616674157521152,-1286
599616674165207424,-1248
599616674172893696,-1229
599616674180579968,-1203
599616674188266240,-1147
599616674195952640,-1109
599616674203638912,-1107
599616674211325184,-1154
599616674219011456,-1298
599616674226697728,-1335
599616674234384000,-876
599616674242070272,32
599616674249756544,704
599616674257442816,282
599616674265129088,-866
599616674272815488,-1354
599616674280501760,-1130
599616674288188032,-1034
599616674295874304,-1008
599616674303560576,-897
599616674311246848,-899
599616674318933120,-921
599616674326619392,-850
599616674334305664,-796
599616674341992064,-770
599616674349678336,-725
599616674357364608,-716
599616674365050880,-742
599616674372737152,-723
599616674380423424,-659
599616674388109696,-612
599616674395795968,-581
599616674403482240,-556
599616674411168640,-560
599616674418854912,-577
599616674426541184,-534
599616674434227456,-468
599616674441913728,-473
599616674449600000,-530
599616674457286272,-563
599616674464972544,-546
599616674472658816,-508
599616674480345088,-511
599616674488031488,-541
599616674495717760,-537
599616674503404032,-518
599616674511090304,-504
599616674518776576,-468
599616674526462848,-449
599616674534149120,-464
599616674541835392,-464
599616674549521664,-433
599616674557208064,-421
599616674564894336,-426
599616674572580608,-395
599616674580266880,-367
599616674587953152,-400
599616674595639424,-445
599616674603325696,-424
599616674611011968,-372
599616674618698240,-346
599616674626384640,-351
599616674634070912,-362
599616674641757147,-358
599616674649443456,-329
599616674657129728,-296
599616674664816000,-308
599616674672502272,-327
599616674680188544,-320
599616674687874944,-322
599616674695561216,-329
599616674703247488,-334
599616674710933760,-343
599616674718620032,-336
599616674726306304,-310
599616674733992576,-303
599616674741678848,-327
599616674749365120,-348
599616674757051520,-407
599616674764737792,-532
599616674772424064,-480
599616674780110336,82
599616674787796608,1003
599616674795482880,1368
599616674803169152,508
599616674810855424,-553
599616674818541696,-659
599616674826227968,-409
599616674833914368,-391
599616674841600640,-327
599616674849286912,-245
599616674856973184,-268
599616674864659456,-245
599616674872345728,-202
599616674880032000,-228
599616674887718272,-230
599616674895404544,-188
599616674903090944,-157
599616674910777216,-129
599616674918463488,-106
599616674926149760,-96
599616674933836032,-75
599616674941522304,-40
599616674949208576,-9
599616674956894848,18
599616674964581120,56
599616674972267520,51
599616674979953792,4
599616674987640064,23
599616674995326336,73
599616675003012608,44
599616675010698880,23
599616675018385152,44
599616675026071424,32
599616675033757696,7
599616675041443968,9
599616675049130368,21
599616675056816640,16
599616675064502912,16
599616675072189184,40
599616675079875456,80
599616675087561728,120
599616675095248000,171
599616675102934272,228
599616675110620544,275
599616675118306944,296
599616675125993216,325
599616675133679488,381
599616675141365760,424
599616675149052032,426
599616675156738304,428
599616675164424576,438
599616675172110848,438
599616675179797120,442
599616675187483520,426
599616675195169792,386
599616675202856008,369
599616675210542336,376
599616675218228608,372
599616675225914880,346
599616675233601152,320
599616675241287424,299
599616675248973824,282
599616675256660096,254
599616675264346368,216
599616675272032640,186
599616675279718912,143
599616675287405184,96
599616675295091456,68
599616675302777728,14
599616675310464000,-127
599616675318150400,-332
599616675325836672,-315
599616675333522944,278
599616675341209216,1255
599616675348895488,1580
599616675356581760,513
599616675364268032,-765
599616675371954304,-883
599616675379640576,-591
599616675387326848,-607
599616675395013248,-523
599616675402699520,-388
599616675410385792,-454
599616675418072064,-499
599616675425758336,-454
599616675433444608,-457
599616675441130880,-459
599616675448817152,-412
599616675456503424,-400
599616675464189824,-409
599616675471876096,-381
599616675479562368,-365
599616675487248640,-351
599616675494934912,-308
599616675502621184,-278
599616675510307456,-278
599616675517993728,-247
599616675525680000,-160
599616675533366400,-124
599616675541052672,-186
599616675548738944,-200
599616675556425216,-153
599616675564111488,-148
599616675571797760,-174
599616675579484032,-164
599616675587170304,-129
599616675594856576,-91
599616675602542848,-80
599616675610229248,-120
599616675617915520,-174
599616675625601792,-197
599616675633288064,-197
599616675640974336,-195
599616675648660608,-219
599616675656346880,-261
599616675664033152,-294
599616675671719424,-339
599616675679405824,-440
599616675687092096,-532
599616675694778368,-527
599616675702464640,-487
599616675710150912,-506
599616675717837184,-546
599616675725523456,-560
599616675733209728,-546
599616675740896000,-497
599616675748582400,-464
599616675756268672,-501
599616675763954869,-534
599616675771641472,-471
599616675779328128,-407
599616675787014912,-426
599616675794701568,-417
599616675802388224,-353
599616675810075008,-358
599616675817761664,-442
599616675825448448,-480
599616675833135104,-426
599616675840821760,-388
599616675848508544,-409
599616675856195200,-398
599616675863881856,-379
599616675871568640,-459
599616675879255296,-657
599616675886942080,-841
599616675894628736,-697
599616675902315392,18
599616675910002176,982
599616675917688832,1046
599616675925375488,-306
599616675933062272,-1420
599616675940748928,-1199
599616675948435712,-874
599616675956122368,-916
599616675963809024,-730
599616675971495808,-572
599616675979182464,-690
599616675986869120,-753
599616675994555904,-697
599616676002242560,-702
599616676009929344,-760
599616676017616000,-768
599616676025302656,-730
599616676032989440,-723
599616676040676096,-732
599616676048362752,-711
599616676056049536,-697
599616676063736192,-697
599616676071422976,-676
599616676079109632,-657
599616676086796288,-650
599616676094483072,-636
599616676102169728,-643
599616676109856384,-671
599616676117543168,-695
599616676125229824,-720
599616676132916608,-786
599616676140603264,-857
599616676148289920,-883
599616676155976704,-907
599616676163663360,-944
599616676171350016,-982
599616676179036800,-1008
599616676186723456,-989
599616676194410240,-961
599616676202096896,-965
599616676209783552,-965
599616676217470336,-956
599616676225156992,-949
599616676232843648,-930
599616676240530432,-921
599616676248217088,-907
599616676255903872,-878
599616676263590528,-871
599616676271277184,-857
599616676278963968,-817
599616676286650624,-819
599616676294337280,-810
599616676302024064,-725
599616676309710720,-678
599616676317397504,-699
599616676325084248,-699
599616676332770560,-683
599616676340456832,-650
599616676348143104,-600
599616676355829376,-581
599616676363515648,-579
599616676371202048,-558
599616676378888320,-548
599616676386574592,-532
599616676394260864,-490
599616676401947136,-473
599616676409633408,-452
599616676417319680,-409
599616676425005952,-395
599616676432692224,-372
599616676440378624,-336
599616676448064896,-395
599616676455751168,-581
599616676463437440,-640
599616676471123712,-219
599616676478809984,647
599616676486496256,1342
599616676494182528,1034
599616676501868800,-56
599616676509555072,-626
599616676517241472,-466
599616676524927744,-341
599616676532614016,-289
599616676540300288,-139
599616676547986560,-82
599616676555672832,-131
599616676563359104,-143
599616676571045376,-113
599616676578731648,-115
599616676586418048,-103
599616676594104320,-42
599616676601790592,-40
599616676609476864,-80
599616676617163136,-56
599616676624849408,-11
599616676632535680,2
599616676640221952,30
599616676647908224,73
599616676655594624,89
599616676663280896,84
599616676670967168,80
599616676678653440,89
599616676686339712,96
599616676694025984,61
599616676701712256,25
599616676709398528,56
599616676717084800,40
599616676724771200,-87
599616676732457472,-134
599616676740143744,-49
599616676747830016,-28
599616676755516288,-110
599616676763202560,-150
599616676770888832,-101
599616676778575104,-61
599616676786261376,-80
599616676793947648,-108
599616676801634048,-94
599616676809320320,-61
599616676817006592,-42
599616676824692864,-28
599616676832379136,-18
599616676840065408,0
599616676847751680,40
599616676855437952,42
599616676863124224,-21
599616676870810624,-4
599616676878496896,80
599616676886183113,56
599616676893869824,9
599616676901556480,44
599616676909243264,58
599616676916929920,32
599616676924616576,80
599616676932303360,176
599616676939990016,148
599616676947676800,70
599616676955363456,129
599616676963050112,150
599616676970736896,61
599616676978423552,65
599616676986110208,141
599616676993796992,164
599616677001483648,150
599616677009170432,214
599616677016857088,351
599616677024543744,292
599616677032230528,25
599616677039917184,40
599616677047603840,614
599616677055290624,1510
599616677062977280,2207
599616677070664064,2004
599616677078350720,977
599616677086037376,388
599616677093724160,666
599616677101410816,1024
599616677109097472,1349
599616677116784256,1960
599616677124470912,2655
599616677132157696,3300
599616677139844352,3962
599616677147531008,4431
599616677155217792,4608
599616677162904448,4747
599616677170591104,5015
599616677178277888,5432
599616677185964544,5849
599616677193651328,5995
599616677201337984,6017
599616677209024640,6052
599616677216711424,5974
599616677224398080,5896
599616677232084736,5821
599616677239771520,5550
599616677247458176,5126
599616677255144960,4667
599616677262831616,4193
599616677270518272,3745
599616677278205056,3310
599616677285891712,2876
599616677293578368,2492
599616677301265152,2139
599616677308951808,1785
599616677316638592,1458
599616677324325248,1154
599616677332011904,852
599616677339698688,541
599616677347385344,209
599616677355072000,-110
599616677362758784,-381
599616677370445440,-638
599616677378132224,-876
599616677385818880,-1024
599616677393505536,-1126
599616677401192320,-1213
599616677408878976,-1274
599616677416565632,-1300
599616677424252416,-1295
599616677431939072,-1274
599616677439625856,-1234
599616677447312492,-1206
599616677454998784,-1201
599616677462685056,-1177
599616677470371328,-1149
599616677478057600,-1140
599616677485743872,-1112
599616677493430272,-1038
599616677501116544,-961
599616677508802816,-904
599616677516489088,-826
599616677524175360,-756
599616677531861632,-777
599616677539547904,-793
599616677547234176,-699
599616677554920448,-624
599616677562606848,-619
599616677570293120,-577
599616677577979392,-515
599616677585665664,-485
599616677593351936,-482
599616677601038208,-560
599616677608724480,-723
599616677616410752,-805
599616677624097024,-508
599616677631783296,212
599616677639469696,779
599616677647155968,490
599616677654842240,-391
599616677662528512,-881
599616677670214784,-829
599616677677901056,-749
599616677685587328,-711
599616677693273600,-643
599616677700959872,-650
599616677708646272,-687
599616677716332544,-678
599616677724018816,-664
599616677731705088,-654
599616677739391360,-636
599616677747077632,-636
599616677754763904,-643
599616677762450176,-645
599616677770136448,-638
599616677777822848,-612
599616677785509120,-588
599616677793195392,-567
599616677800881664,-548
599616677808567936,-548
599616677816254208,-546
599616677823940480,-532
599616677831626752,-544
599616677839313024,-563
599616677846999296,-570
599616677854685696,-591
599616677862371968,-605
599616677870058240,-610
599616677877744512,-621
599616677885430784,-614
599616677893117056,-586
599616677900803328,-603
599616677908489600,-636
599616677916175872,-645
599616677923862272,-621
599616677931548544,-563
599616677939234816,-527
599616677946921088,-572
599616677954607360,-605
599616677962293632,-548
599616677969979904,-497
599616677977666176,-482
599616677985352448,-480
599616677993038848,-520
599616678000725120,-530
599616678008411353,-468
599616678016097664,-449
599616678023783936,-478
599616678031470208,-487
599616678039156480,-490
599616678046842752,-492
599616678054529152,-482
599616678062215424,-475
599616678069901696,-485
599616678077587968,-480
599616678085274240,-445
599616678092960512,-421
599616678100646784,-433
599616678108333056,-461
599616678116019328,-468
599616678123705728,-454
599616678131392000,-459
599616678139078272,-490
599616678146764544,-492
599616678154450816,-457
599616678162137088,-433
599616678169823360,-459
599616678177509632,-553
599616678185195904,-718
599616678192882176,-772
599616678200568576,-424
599616678208254848,292
599616678215941120,758
599616678223627392,353
599616678231313664,-527
599616678238999936,-897
599616678246686208,-749
599616678254372480,-680
599616678262058752,-683
599616678269745152,-598
599616678277431424,-565
599616678285117696,-605
599616678292803968,-607
599616678300490240,-581
599616678308176512,-565
599616678315862784,-556
599616678323549056,-577
599616678331235328,-591
599616678338921728,-551
599616678346608000,-506
599616678354294272,-511
599616678361980544,-501
599616678369666816,-454
599616678377353088,-438
599616678385039360,-447
599616678392725632,-445
599616678400411904,-440
599616678408098176,-435
599616678415784576,-459
599616678423470848,-497
599616678431157120,-492
599616678438843392,-482
599616678446529664,-515
599616678454215936,-563
599616678461902208,-567
599616678469588480,-548
599616678477274752,-572
599616678484961152,-579
599616678492647424,-544
599616678500333696,-565
599616678508019968,-591
599616678515706240,-563
599616678523392512,-565
599616678531078784,-584
599616678538765056,-541
599616678546451328,-504
599616678554137728,-548
599616678561824000,-567
599616678569510214,-506
599616678577196544,-492
599616678584882816,-539
599616678592569088,-541
599616678600255360,-511
599616678607941632,-511
599616678615628032,-518
599616678623314304,-544
599616678631000576,-567
599616678638686848,-515
599616678646373120,-475
599616678654059392,-473
599616678661745664,-435
599616678669431936,-454
599616678677118208,-508
599616678684804608,-466
599616678692490880,-433
599616678700177152,-485
599616678707863424,-508
599616678715549696,-497
599616678723235968,-492
599616678730922240,-461
599616678738608512,-480
599616678746294784,-654
599616678753981056,-805
599616678761667456,-574
599616678769353728,117
599616678777040000,793
599616678784726272,709
599616678792412544,-141
599616678800098816,-768
599616678807785088,-718
599616678815471360,-598
599616678823157632,-607
599616678830844032,-527
599616678838530304,-480
599616678846216576,-501
599616678853902848,-457
599616678861589120,-419
599616678869275392,-409
599616678876961664,-388
599616678884647936,-407
599616678892334208,-428
599616678900020608,-381
599616678907706880,-315
599616678915393152,-332
599616678923079424,-384
599616678930765696,-322
599616678938451968,-245
599616678946138240,-261
599616678953824512,-263
599616678961510784,-249
599616678969197056,-273
599616678976883456,-273
599616678984569728,-266
599616678992256000,-285
599616678999942272,-292
599616679007628544,-313
599616679015314816,-365
599616679023001088,-374
599616679030687360,-336
599616679038373632,-325
599616679046060032,-341
599616679053746304,-332
599616679061432576,-322
599616679069118848,-325
599616679076805120,-301
599616679084491392,-275
599616679092177664,-299
599616679099863936,-315
599616679107550208,-278
599616679115236608,-256
599616679122922880,-266
599616679130609075,-256
599616679138295680,-237
599616679145982336,-240
599616679153669120,-235
599616679161355776,-216
599616679169042432,-216
599616679176729216,-223
599616679184415872,-235
599616679192102656,-259
599616679199789312,-230
599616679207475968,-162
599616679215162752,-160
599616679222849408,-169
599616679230536064,-124
599616679238222848,-117
599616679245909504,-134
599616679253596288,-124
599616679261282944,-120
599616679268969600,-122
599616679276656384,-122
599616679284343040,-127
599616679292029696,-113
599616679299716480,-96
599616679307403136,-162
599616679315089920,-320
599616679322776576,-414
599616679330463232,-157
599616679338150016,539
599616679345836672,1168
599616679353523328,1020
599616679361210112,270
599616679368896768,-188
599616679376583552,-179
599616679384270208,-169
599616679391956864,-214
599616679399643648,-171
599616679407330304,-127
599616679415016960,-122
599616679422703744,-103
599616679430390400,-80
599616679438077184,-56
599616679445763840,-16
599616679453450496,9
599616679461137280,23
599616679468823936,49
599616679476510592,70
599616679484197376,87
599616679491884032,120
599616679499570816,155
599616679507257472,183
599616679514944128,212
599616679522630912,235
599616679530317568,252
599616679538004224,280
599616679545691008,301
599616679553377664,301
599616679561064448,294
599616679568751104,299
599616679576437760,322
599616679584124544,351
599616679591811200,386
599616679599497856,421
599616679607184640,464
599616679614871296,537
599616679622558080,657
599616679630244736,770
599616679637931392,826
599616679645618176,876
599616679653304832,947
599616679660991488,973
599616679668678272,899
599616679676364928,789
599616679684051712,697
599616679691738454,614
599616679699424768,520
599616679707111040,426
599616679714797312,355
599616679722483584,306
599616679730169856,223
599616679737856256,129
599616679745542528,101
599616679753228800,73
599616679760915072,-14
599616679768601344,-77
599616679776287616,-77
599616679783973888,-75
599616679791660160,-91
599616679799346432,-87
599616679807032832,-63
599616679814719104,-73
599616679822405376,-103
599616679830091648,-103
599616679837777920,-98
599616679845464192,-120
599616679853150464,-129
599616679860836736,-115
599616679868523008,-115
599616679876209280,-127
599616679883895680,-124
599616679891581952,-183
599616679899268224,-360
599616679906954496,-417
599616679914640768,-7
599616679922327040,742
599616679930013312,1140
599616679937699584,692
599616679945385856,-73
599616679953072256,-332
599616679960758528,-247
599616679968444800,-254
599616679976131072,-240
599616679983817344,-160
599616679991503616,-162
599616679999189888,-200
599616680006876160,-183
599616680014562432,-157
599616680022248832,-160
599616680029935104,-160
599616680037621376,-157
599616680045307648,-160
599616680052993920,-153
599616680060680192,-139
599616680068366464,-136
599616680076052736,-129
599616680083739008,-136
599616680091425408,-162
599616680099111680,-164
599616680106797952,-150
599616680114484224,-174
599616680122170496,-204
599616680129856768,-233
599616680137543040,-261
599616680145229312,-268
599616680152915584,-294
599616680160601856,-341
599616680168288256,-435
599616680175974528,-527
599616680183660800,-534
599616680191347072,-546
599616680199033344,-591
599616680206719616,-593
599616680214405888,-586
599616680222092160,-645
599616680229778432,-687
599616680237464832,-650
599616680245151104,-669
599616680252837319,-758
599616680260523776,-753
599616680268210176,-704
599616680275896576,-720
599616680283583104,-723
599616680291269504,-664
599616680298955904,-629
599616680306642304,-619
599616680314328704,-605
599616680322015232,-591
599616680329701632,-560
599616680337388032,-532
599616680345074432,-534
599616680352760832,-553
599616680360447360,-551
599616680368133760,-513
599616680375820160,-466
599616680383506560,-459
599616680391192960,-457
599616680398879488,-428
599616680406565888,-480
599616680414252288,-539
599616680421938688,-494
599616680429625088,-475
599616680437311616,-508
599616680444998016,-492
599616680452684416,-471
599616680460370816,-527
599616680468057216,-702
599616680475743616,-852
599616680483430144,-581
599616680491116544,153
599616680498802944,791
599616680506489344,647
599616680514175744,-249
599616680521862272,-864
599616680529548672,-772
599616680537235072,-593
599616680544921472,-530
599616680552607872,-419
599616680560294400,-332
599616680567980800,-289
599616680575667200,-179
599616680583353600,-21
599616680591040000,65
599616680598726528,80
599616680606412928,91
599616680614099328,98
599616680621785728,115
599616680629472128,136
599616680637158656,120
599616680644845056,103
599616680652531456,103
599616680660217856,98
599616680667904256,108
599616680675590784,139
599616680683277184,155
599616680690963584,139
599616680698649984,120
599616680706336384,110
599616680714022912,80
599616680721709312,28
599616680729395712,-28
599616680737082112,-54
599616680744768512,-63
599616680752455040,-124
599616680760141440,-207
599616680767827840,-219
599616680775514240,-171
599616680783200640,-134
599616680790887168,-120
599616680798573568,-82
599616680806259968,-35
599616680813946354,-44
599616680821632896,-77
599616680829319424,-106
599616680837006080,-153
599616680844692608,-223
599616680852379136,-318
599616680860065664,-409
599616680867752320,-471
599616680875438848,-525
599616680883125376,-584
599616680890812032,-629
599616680898498560,-619
599616680906185088,-527
599616680913871616,-353
599616680921558272,-164
599616680929244800,0
599616680936931328,223
599616680944617984,537
599616680952304512,826
599616680959991040,1024
599616680967677568,1196
599616680975364224,1387
599616680983050752,1623
599616680990737280,1920
599616680998423936,2219
599616681006110464,2407
599616681013796992,2490
599616681021483520,2624
599616681029170176,2706
599616681036856704,2542
599616681044543232,2445
599616681052229888,2975
599616681059916416,3969
599616681067602944,4518
599616681075289472,3851
599616681082976128,2391
599616681090662656,1599
599616681098349184,1715
599616681106035840,1783
599616681113722368,1691
599616681121408896,1689
599616681129095424,1606
599616681136782080,1463
599616681144468608,1448
599616681152155136,1529
599616681159841792,1569
599616681167528320,1418
599616681175214848,1100
599616681182901376,855
599616681190588032,737
599616681198274560,718
599616681205961088,862
599616681213647744,1107
599616681221334272,1338
599616681229020800,1392
599616681236707328,1220
599616681244393984,1017
599616681252080512,772
599616681259767040,343
599616681267453696,-124
599616681275140224,-523
599616681282826752,-904
599616681290513280,-1324
599616681298199936,-1759
599616681305886464,-2120
599616681313572992,-2398
599616681321259648,-2645
599616681328946176,-2845
599616681336632704,-3001
599616681344319232,-3100
599616681352005888,-3154
599616681359692416,-3182
599616681367378944,-3171
599616681375065559,-3133
599616681382751872,-3083
599616681390438144,-3020
599616681398124416,-2975
599616681405810688,-2900
599616681413496960,-2770
599616681421183360,-2697
599616681428869632,-2643
599616681436555904,-2553
599616681444242176,-2443
599616681451928448,-2273
599616681459614720,-2150
599616681467300992,-2143
599616681474987264,-2089
599616681482673536,-1941
599616681490359936,-1811
599616681498046208,-1731
599616681505732480,-1632
599616681513418752,-1510
599616681521105024,-1401
599616681528791296,-1305
599616681536477568,-1180
599616681544163840,-965
599616681551850112,-556
599616681559536384,-221
599616681567222784,-523
599616681574909056,-911
599616681582595328,-263
599616681590281600,1088
599616681597967872,2092
599616681605654144,2558
599616681613340416,2883
599616681621026688,3439
599616681628712960,4089
599616681636399360,3915
599616681644085632,2426
599616681651771904,871
599616681659458176,379
599616681667144448,157
599616681674830720,-424
599616681682516992,-899
599616681690203264,-1180
599616681697889536,-1382
599616681705575936,-1467
599616681713262208,-1503
599616681720948480,-1526
599616681728634752,-1517
599616681736321024,-1488
599616681744007296,-1441
599616681751693568,-1347
599616681759379840,-1354
599616681767066112,-1496
599616681774752384,-1422
599616681782438784,-1168
599616681790125056,-1067
599616681797811328,-1029
599616681805497600,-895
599616681813183872,-874
599616681820870144,-1008
599616681828556416,-895
599616681836242688,-588
599616681843928960,-525
599616681851615360,-584
599616681859301632,-541
599616681866987904,-548
599616681874674176,-584
599616681882360448,-490
599616681890046720,-461
599616681897732992,-584
599616681905419264,-577
599616681913105536,-445
599616681920791936,-386
599616681928478208,-400
599616681936164420,-442
599616681943850752,-478
599616681951537024,-447
599616681959223296,-409
599616681966909568,-424
599616681974595840,-407
599616681982282240,-369
599616681989968512,-384
599616681997654784,-405
599616682005341056,-372
599616682013027328,-358
599616682020713600,-379
599616682028399872,-355
599616682036086144,-369
599616682043772416,-419
599616682051458816,-384
599616682059145088,-341
599616682066831360,-348
599616682074517632,-322
599616682082203904,-289
599616682089890176,-313
599616682097576448,-325
599616682105262720,-343
599616682112948992,-402
599616682120635264,-381
599616682128321664,-289
599616682136007936,-273
599616682143694208,-306
599616682151380480,-303
599616682159066752,-294
599616682166753024,-402
599616682174439296,-579
599616682182125568,-442
599616682189811840,204
599616682197498240,949
599616682205184512,1029
599616682212870784,233
599616682220557056,-523
599616682228243328,-567
599616682235929600,-417
599616682243615872,-431
599616682251302144,-393
599616682258988416,-292
599616682266674816,-256
599616682274361088,-245
599616682282047360,-204
599616682289733632,-181
599616682297419904,-195
599616682305106176,-186
599616682312792448,-136
599616682320478720,-127
599616682328164992,-143
599616682335851264,-127
599616682343537664,-87
599616682351223936,-63
599616682358910208,-68
599616682366596480,-63
599616682374282752,-35
599616682381969024,-14
599616682389655296,-40
599616682397341568,-87
599616682405027840,-80
599616682412714240,-54
599616682420400512,-77
599616682428086784,-115
599616682435773056,-139
599616682443459328,-141
