599616059546100736,4141
599616059553793024,4078
599616059561485312,3976
599616059569177600,3872
599616059576870016,3818
599616059584562304,3766
599616059592254592,3574
599616059599946880,3255
599616059607639168,3146
599616059615331456,3609
599616059623023872,4496
599616059630716160,4978
599616059638408448,4238
599616059646100736,2943
599616059653793024,2515
599616059661485312,2749
599616059669177600,2770
599616059676870016,2747
599616059684562304,2867
599616059692254592,2877
599616059699946880,2782
599616059707639168,2723
599616059715331456,2685
599616059723023872,2643
599616059730716160,2612
599616059738408448,2565
599616059746100736,2475
599616059753793024,2430
599616059761485312,2470
599616059769177600,2470
599616059776870016,2378
599616059784562304,2316
599616059792254592,2352
599616059799946880,2352
599616059807639168,2260
599616059815331456,2184
599616059823023872,2158
599616059830716160,2120
599616059838408448,2066
599616059846100736,1992
599616059853793024,1903
599616059861485312,1817
599616059869177600,1794
599616059876870016,1791
599616059884562304,1706
599616059892254592,1612
599616059899946880,1588
599616059907639168,1581
599616059915331456,1539
599616059923023872,1479
599616059930716160,1420
599616059938408448,1401
599616059946100736,1437
599616059953793024,1425
599616059961485312,1338
599616059969177600,1290
599616059976870016,1297
599616059984562304,1245
599616059992254592,1158
599616059999946880,1167
599616060007639168,1219
599616060015331456,1189
599616060023023872,1141
599616060030716160,1144
599616060038408448,1104
599616060046100736,1011
599616060053793024,964
599616060061485312,959
599616060069177600,957
599616060076870016,966
599616060084562304,962
599616060092254592,919
599616060099946817,881
599616060107634048,791
599616060115321216,539
599616060123008256,401
599616060130695424,862
599616060138382592,1817
599616060146069632,2371
599616060153756800,1666
599616060161443840,423
599616060169131008,59
599616060176818176,304
599616060184505216,401
599616060192192384,541
599616060199879552,690
599616060207566592,635
599616060215253760,598
599616060222940928,664
599616060230627968,657
599616060238315136,617
599616060246002304,650
599616060253689344,661
599616060261376512,614
599616060269063552,619
599616060276750720,666
599616060284437888,654
599616060292124928,635
599616060299812096,687
599616060307499264,747
599616060315186304,739
599616060322873472,709
599616060330560640,676
599616060338247680,654
599616060345934848,647
599616060353621888,598
599616060361309056,569
599616060368996224,579
599616060376683264,496
599616060384370432,406
599616060392057600,411
599616060399744640,392
599616060407431808,340
599616060415118976,333
599616060422806016,347
599616060430493184,335
599616060438180352,319
599616060445867392,338
599616060453554560,364
599616060461241600,342
599616060468928768,307
599616060476615936,314
599616060484302976,314
599616060491990144,288
599616060499677312,274
599616060507364352,269
599616060515051520,243
599616060522738688,217
599616060530425728,226
599616060538112896,250
599616060545799936,255
599616060553487104,248
599616060561174272,234
599616060568861312,203
599616060576548480,172
599616060584235648,182
599616060591922688,215
599616060599609856,212
599616060607297024,179
599616060614984064,156
599616060622671232,139
599616060630358272,101
599616060638045440,-59
599616060645732608,-222
599616060653419648,89
599616060661106714,952
599616060668793856,1657
599616060676481024,1382
599616060684168064,316
599616060691855232,-321
599616060699542400,-215
599616060707229440,-99
599616060714916608,-75
599616060722603648,61
599616060730290816,146
599616060737977984,122
599616060745665024,104
599616060753352192,130
599616060761039360,141
599616060768726400,125
599616060776413568,144
599616060784100736,189
599616060791787776,196
599616060799474944,210
599616060807162112,271
599616060814849152,302
599616060822536320,304
599616060830223360,323
599616060837910528,328
599616060845597696,307
599616060853284736,316
599616060860971904,359
599616060868659072,359
599616060876346112,300
599616060884033280,250
599616060891720448,234
599616060899407488,224
599616060907094656,184
599616060914781696,134
599616060922468864,118
599616060930156032,106
599616060937843072,78
599616060945530240,73
599616060953217408,75
599616060960904448,59
599616060968591616,66
599616060976278784,99
599616060983965824,96
599616060991652992,73
599616060999340160,63
599616061007027200,82
599616061014714368,108
599616061022401408,85
599616061030088576,21
599616061037775744,7
599616061045462784,59
599616061053149952,80
599616061060837120,40
599616061068524160,35
599616061076211328,85
599616061083898496,92
599616061091585536,33
599616061099272704,-2
599616061106959744,14
599616061114646912,21
599616061122334080,4
599616061130021120,-11
599616061137708288,2
599616061145395456,16
599616061153082496,-75
599616061160769664,-262
599616061168456832,-375
599616061176143872,-96
599616061183831040,773
599616061191518080,1664
599616061199205248,1458
599616061206892416,182
599616061214579456,-638
599616061222266611,-508
599616061229953792,-342
599616061237640960,-262
599616061245328000,-33
599616061253015168,2
599616061260702336,-96
599616061268389376,-35
599616061276076544,21
599616061283763584,-42
599616061291450752,-56
599616061299137920,11
599616061306824960,44
599616061314512128,21
599616061322199296,21
599616061329886336,68
599616061337573504,115
599616061345260672,146
599616061352947712,174
599616061360634880,205
599616061368322048,224
599616061376009088,219
599616061383696256,189
599616061391383296,179
599616061399070464,210
599616061406757632,179
599616061414444672,42
599616061422131840,-21
599616061429819008,23
599616061437506048,21
599616061445193216,-40
599616061452880384,-61
599616061460567424,-49
599616061468254592,-63
599616061475941632,-115
599616061483628800,-127
599616061491315968,-66
599616061499003008,-42
599616061506690176,-94
599616061514377344,-82
599616061522064384,0
599616061529751552,0
599616061537438720,-14
599616061545125760,54
599616061552812928,75
599616061560500096,21
599616061568187136,18
599616061575874304,70
599616061583561344,106
599616061591248512,94
599616061598935680,87
599616061606622720,108
599616061614309888,94
599616061621997056,61
599616061629684096,33
599616061637371264,23
599616061645058432,106
599616061652745472,151
599616061660432640,42
599616061668119680,-26
599616061675806848,-59
599616061683494016,-224
599616061691181056,-252
599616061698868224,345
599616061706555392,1484
599616061714242432,2203
599616061721929600,1456
599616061729616768,-73
599616061737303808,-605
599616061744990976,-252
599616061752678016,-111
599616061760365184,-80
599616061768052352,49
599616061775739392,78
599616061783426508,56
599616061791113728,68
599616061798800896,73
599616061806487936,70
599616061814175104,68
599616061821862272,82
599616061829549312,111
599616061837236480,132
599616061844923520,127
599616061852610688,120
599616061860297856,141
599616061867984896,184
599616061875672064,219
599616061883359232,243
599616061891046272,262
599616061898733440,255
599616061906420608,224
599616061914107648,193
599616061921794816,177
599616061929481984,167
599616061937169024,125
599616061944856192,61
599616061952543232,28
599616061960230400,23
599616061967917568,4
599616061975604608,-33
599616061983291776,-56
599616061990978944,-42
599616061998665984,-33
599616062006353152,-52
599616062014040320,-59
599616062021727360,-54
599616062029414528,-49
599616062037101568,-37
599616062044788736,-28
599616062052475904,-35
599616062060162944,-42
599616062067850112,-52
599616062075537280,-68
599616062083224320,-85
599616062090911488,-87
599616062098598656,-75
599616062106285696,-73
599616062113972864,-70
599616062121660032,-66
599616062129347072,-78
599616062137034240,-104
599616062144721280,-130
599616062152408448,-144
599616062160095616,-139
599616062167782656,-118
599616062175469824,-118
599616062183156992,-132
599616062190844032,-125
599616062198531200,-196
599616062206218368,-456
599616062213905408,-565
599616062221592576,-26
599616062229279616,1030
599616062236966784,1735
599616062244653952,1196
599616062252340992,-75
599616062260028160,-673
599616062267715328,-520
599616062275402368,-361
599616062283089536,-241
599616062290776704,-137
599616062298463744,-172
599616062306150912,-184
599616062313837952,-130
599616062321525120,-130
599616062329212288,-141
599616062336899328,-113
599616062344586405,-115
599616062352273920,-127
599616062359961472,-37
599616062367649024,44
599616062375336576,-7
599616062383024128,-14
599616062390711680,127
599616062398399104,205
599616062406086656,170
599616062413774208,215
599616062421461760,293
599616062429149312,250
599616062436836864,177
599616062444524416,170
599616062452211968,163
599616062459899520,113
599616062467587072,52
599616062475274496,2
599616062482962048,-21
599616062490649600,-33
599616062498337152,-56
599616062506024704,-68
599616062513712256,-42
599616062521399808,-30
599616062529087360,-75
599616062536774912,-94
599616062544462464,-40
599616062552150016,-7
599616062559837440,-37
599616062567524992,-49
599616062575212544,0
599616062582900096,26
599616062590587648,-16
599616062598275200,-33
599616062605962752,18
599616062613650304,47
599616062621337856,28
599616062629025408,26
599616062636712960,47
599616062644400384,33
599616062652087936,-7
599616062659775488,-40
599616062667463040,-23
599616062675150592,26
599616062682838144,-9
599616062690525696,-59
599616062698213248,-26
599616062705900800,-30
599616062713588352,-144
599616062721275776,-371
599616062728963328,-607
599616062736650880,-439
599616062744338432,425
599616062752025984,1541
599616062759713536,1728
599616062767401088,505
599616062775088640,-652
599616062782776192,-673
599616062790463744,-477
599616062798151296,-484
599616062805838720,-257
599616062813526272,-113
599616062821213824,-250
599616062828901376,-295
599616062836588928,-234
599616062844276480,-241
599616062851964032,-248
599616062859651584,-241
599616062867339136,-269
599616062875026688,-274
599616062882714240,-215
599616062890401664,-172
599616062898089216,-170
599616062905776824,-106
599616062913463936,-37
599616062921151104,-47
599616062928838144,-28
599616062936525312,28
599616062944212480,49
599616062951899520,44
599616062959586688,-7
599616062967273728,-68
599616062974960896,-106
599616062982648064,-148
599616062990335104,-137
599616062998022272,-82
599616063005709440,-113
599616063013396480,-193
599616063021083648,-196
599616063028770816,-170
599616063036457856,-182
599616063044145024,-196
599616063051832192,-186
599616063059519232,-191
599616063067206400,-191
599616063074893440,-163
599616063082580608,-153
599616063090267776,-177
599616063097954816,-191
599616063105641984,-198
599616063113329152,-200
599616063121016192,-186
599616063128703360,-205
599616063136390528,-231
599616063144077568,-208
599616063151764736,-174
599616063159451776,-160
599616063167138944,-122
599616063174826112,-96
599616063182513152,-122
599616063190200320,-146
599616063197887488,-125
599616063205574528,-108
599616063213261696,-101
599616063220948864,-59
599616063228635904,-33
599616063236323072,-30
599616063244010240,14
599616063251697280,14
599616063259384448,-191
599616063267071488,-465
599616063274758656,-345
599616063282445824,458
599616063290132864,1562
599616063297820032,1933
599616063305507200,1000
599616063313194240,-174
599616063320881408,-425
599616063328568576,-238
599616063336255616,-212
599616063343942784,-144
599616063351629824,-63
599616063359316992,-113
599616063367004160,-160
599616063374691200,-134
599616063382378368,-144
599616063390065536,-179
599616063397752576,-158
599616063405439744,-130
599616063413126912,-132
599616063420813952,-106
599616063428501120,-56
599616063436188160,-26
599616063443875328,7
599616063451562496,63
599616063459249536,99
599616063466936721,134
599616063474623872,191
599616063482311040,234
599616063489998080,238
599616063497685248,236
599616063505372416,229
599616063513059456,200
599616063520746624,148
599616063528433664,89
599616063536120832,28
599616063543808000,-23
599616063551495040,-70
599616063559182208,-108
599616063566869376,-127
599616063574556416,-153
599616063582243584,-196
599616063589930752,-222
599616063597617792,-219
599616063605304960,-210
599616063612992128,-196
599616063620679168,-196
599616063628366336,-234
599616063636053376,-264
599616063643740544,-243
599616063651427712,-224
599616063659114752,-238
599616063666801920,-245
599616063674489088,-222
599616063682176128,-186
599616063689863296,-167
599616063697550464,-165
599616063705237504,-156
599616063712924672,-137
599616063720611712,-141
599616063728298880,-153
599616063735986048,-139
599616063743673088,-132
599616063751360256,-148
599616063759047424,-148
599616063766734464,-134
599616063774421632,-108
599616063782108800,-108
599616063789795840,-248
599616063797483008,-453
599616063805170176,-319
599616063812857216,427
599616063820544384,1382
599616063828231424,1588
599616063835918592,581
599616063843605760,-527
599616063851292800,-628
599616063858979968,-347
599616063866667136,-321
599616063874354176,-290
599616063882041344,-236
599616063889728512,-269
599616063897415552,-283
599616063905102720,-264
599616063912789760,-262
599616063920476928,-243
599616063928164096,-212
599616063935851136,-191
599616063943538304,-160
599616063951225472,-118
599616063958912512,-82
599616063966599680,-54
599616063974286848,-28
599616063981973888,-9
599616063989661056,16
599616063997348096,44
599616064005035264,40
599616064012722432,33
599616064020409472,35
599616064028096618,11
599616064035783808,-30
599616064043470976,-56
599616064051158016,-78
599616064058845184,-99
599616064066532352,-111
599616064074219392,-125
599616064081906560,-146
599616064089593600,-139
599616064097280768,-111
599616064104967936,-108
599616064112654976,-137
599616064120342144,-153
599616064128029312,-141
599616064135716352,-137
599616064143403520,-153
599616064151090688,-156
599616064158777728,-151
599616064166464896,-174
599616064174152064,-193
599616064181839104,-172
599616064189526272,-148
599616064197213312,-148
599616064204900480,-144
599616064212587648,-111
599616064220274688,-70
599616064227961856,-35
599616064235649024,-7
599616064243336064,2
599616064251023232,-7
599616064258710400,-30
599616064266397440,-33
599616064274084608,-14
599616064281771648,-11
599616064289458816,-28
599616064297145984,-49
599616064304833024,-56
599616064312520192,-113
599616064320207360,-338
599616064327894400,-515
599616064335581568,-118
599616064343268736,905
599616064350955776,1744
599616064358642944,1340
599616064366330112,-49
599616064374017152,-789
599616064381704320,-565
599616064389391360,-408
599616064397078528,-397
599616064404765696,-226
599616064412452736,-148
599616064420139904,-191
599616064427827072,-151
599616064435514112,-106
599616064443201280,-134
599616064450888448,-134
599616064458575488,-118
599616064466262656,-146
599616064473949696,-75
599616064481636864,-21
599616064489324032,-158
599616064497011072,-115
599616064504698240,130
599616064512385408,92
599616064520072448,-37
599616064527759616,210
599616064535446784,269
599616064543133824,-205
599616064550820992,-174
599616064558508032,300
599616064566195200,163
599616064573882368,-189
599616064581569408,-141
599616064589256515,21
599616064596943744,-11
599616064604630912,-328
599616064612317952,-408
599616064620005120,26
599616064627692288,-70
599616064635379328,-605
599616064643066496,-309
599616064650753536,118
599616064658440704,-215
599616064666127872,-401
599616064673814912,-85
599616064681502080,-2
599616064689189248,-184
599616064696876288,-243
599616064704563456,-170
599616064712250624,-118
599616064719937664,-229
599616064727624832,-276
599616064735312000,-80
599616064742999040,0
599616064750686208,-146
599616064758373248,-252
599616064766060416,-108
599616064773747584,-54
599616064781434624,-373
599616064789121792,-390
599616064796808960,-35
599616064804496000,-73
599616064812183168,-366
599616064819870336,-319
599616064827557376,-130
599616064835244544,-304
599616064842931584,-659
599616064850618752,-633
599616064858305920,35
599616064865992960,1085
599616064873680128,1626
599616064881367296,952
599616064889054336,-276
599616064896741504,-777
599616064904428672,-553
599616064912115712,-385
599616064919802880,-373
599616064927490048,-281
599616064935177088,-158
599616064942864256,-255
599616064950551296,-420
599616064958238464,-224
599616064965925632,-35
599616064973612672,-151
599616064981299840,-179
599616064988987008,-113
599616064996674048,-132
599616065004361216,-111
599616065012048384,-35
599616065019735424,-28
599616065027422592,-28
599616065035109632,37
599616065042796800,101
599616065050483968,106
599616065058171008,73
599616065065858176,70
599616065073545344,89
599616065081232384,80
599616065088919552,23
599616065096606720,-7
599616065104293760,26
599616065111980928,-101
599616065119667968,-231
599616065127355136,-23
599616065135042304,16
599616065142729344,-281
599616065150416412,-238
599616065158103552,68
599616065165790720,7
599616065173477760,-281
599616065181164928,-286
599616065188852096,30
599616065196539136,59
599616065204226304,-312
599616065211913344,-174
599616065219600512,205
599616065227287680,-56
599616065234974720,-423
599616065242661888,-219
599616065250349056,226
599616065258036096,111
599616065265723264,-498
599616065273410432,-394
599616065281097472,229
599616065288784640,-75
599616065296471808,-539
599616065304158848,-94
599616065311846016,167
599616065319533056,-158
599616065327220224,-238
599616065334907392,4
599616065342594432,-73
599616065350281600,-364
599616065357968768,-323
599616065365655808,-345
599616065373342976,-442
599616065381030144,203
599616065388717184,1375
599616065396404352,1829
599616065404091392,1014
599616065411778560,-127
599616065419465728,-491
599616065427152768,-281
599616065434839936,-203
599616065442527104,-231
599616065450214144,11
599616065457901312,186
599616065465588480,26
599616065473275520,23
599616065480962688,96
599616065488649856,14
599616065496336896,78
599616065504024064,92
599616065511711104,-56
599616065519398272,35
599616065527085440,174
599616065534772480,89
599616065542459648,156
599616065550146816,271
599616065557833856,153
599616065565521024,92
599616065573208192,208
599616065580895232,309
599616065588582400,264
599616065596269440,186
599616065603956608,189
599616065611643776,118
599616065619330816,2
599616065627017984,16
599616065634705152,56
599616065642392192,-30
599616065650079360,-108
599616065657766528,-75
599616065665453568,-75
599616065673140736,-120
599616065680827776,-108
599616065688514944,-87
599616065696202112,-106
599616065703889152,-118
599616065711576309,-106
599616065719263872,-78
599616065726951424,-42
599616065734638976,-28
599616065742326528,-61
599616065750014080,-89
599616065757701632,-80
599616065765389056,-73
599616065773076608,-61
599616065780764160,-18
599616065788451712,2
599616065796139264,-26
599616065803826816,-49
599616065811514368,-44
599616065819201920,-44
599616065826889472,-52
599616065834577024,-52
599616065842264448,-59
599616065849952000,-56
599616065857639552,-37
599616065865327104,-26
599616065873014656,-85
599616065880702208,-307
599616065888389760,-541
599616065896077312,-302
599616065903764864,652
599616065911452416,1839
599616065919139968,2068
599616065926827392,865
599616065934514944,-364
599616065942202496,-531
599616065949890048,-364
599616065957577600,-319
599616065965265152,-141
599616065972952704,-23
599616065980640256,-70
599616065988327808,-52
599616065996015360,11
599616066003702912,-18
599616066011390336,-42
599616066019077888,-11
599616066026765440,-7
599616066034452992,-4
599616066042140544,30
599616066049828096,68
599616066057515648,80
599616066065203200,94
599616066072890752,132
599616066080578304,179
599616066088265728,219
599616066095953280,229
599616066103640832,215
599616066111328384,191
599616066119015936,148
599616066126703488,85
599616066134391040,16
599616066142078592,-33
599616066149766144,-61
599616066157453696,-106
599616066165141248,-153
599616066172828672,-170
599616066180516224,-179
599616066188203776,-210
599616066195891328,-212
599616066203578880,-186
599616066211266432,-186
599616066218953984,-205
599616066226641536,-198
599616066234329088,-170
599616066242016640,-163
599616066249704192,-172
599616066257391616,-174
599616066265079168,-184
599616066272766728,-196
599616066280453888,-198
599616066288141056,-193
599616066295828096,-172
599616066303515264,-158
599616066311202432,-170
599616066318889472,-200
599616066326576640,-226
599616066334263680,-229
599616066341950848,-215
599616066349638016,-224
599616066357325056,-248
599616066365012224,-257
599616066372699392,-257
599616066380386432,-262
599616066388073600,-281
599616066395760768,-411
599616066403447808,-673
599616066411134976,-718
599616066418822144,-94
599616066426509184,1059
599616066434196352,1810
599616066441883392,1241
599616066449570560,-78
599616066457257728,-697
599616066464944768,-591
599616066472631936,-501
599616066480319104,-423
599616066488006144,-316
599616066495693312,-319
599616066503380480,-326
599616066511067520,-278
599616066518754688,-255
599616066526441728,-250
599616066534128896,-222
599616066541816064,-189
599616066549503104,-179
599616066557190272,-184
599616066564877440,-172
599616066572564480,-146
599616066580251648,-122
599616066587938816,-106
599616066595625856,-106
599616066603313024,-108
599616066611000192,-96
599616066618687232,-89
599616066626374400,-99
599616066634061440,-120
599616066641748608,-160
599616066649435776,-200
599616066657122816,-226
599616066664809984,-250
599616066672497152,-274
599616066680184192,-283
599616066687871360,-293
599616066695558528,-314
599616066703245568,-312
599616066710932736,-278
599616066718619776,-248
599616066726306944,-248
599616066733994112,-252
599616066741681152,-245
599616066749368320,-245
599616066757055488,-255
599616066764742528,-250
599616066772429696,-245
599616066780116864,-260
599616066787803904,-269
599616066795491072,-262
599616066803178112,-264
599616066810865280,-264
599616066818552448,-257
599616066826239488,-248
599616066833926625,-224
599616066841613952,-217
599616066849301248,-236
599616066856988416,-250
599616066864675712,-255
599616066872363008,-264
599616066880050304,-269
599616066887737472,-262
599616066895424768,-257
599616066903112064,-260
599616066910799360,-281
599616066918486528,-387
599616066926173824,-612
599616066933861120,-695
599616066941548288,-189
599616066949235584,891
599616066956922880,1678
599616066964610176,1191
599616066972297344,-118
599616066979984640,-765
599616066987671936,-562
599616066995359232,-378
599616067003046400,-361
599616067010733696,-295
599616067018420992,-255
599616067026108160,-252
599616067033795456,-224
599616067041482752,-210
599616067049170048,-222
599616067056857216,-219
599616067064544512,-208
599616067072231808,-200
599616067079919104,-198
599616067087606272,-186
599616067095293568,-163
599616067102980864,-130
599616067110668032,-94
599616067118355328,-85
599616067126042624,-92
599616067133729920,-80
599616067141417088,-68
599616067149104384,-75
599616067156791680,-82
599616067164478976,-89
599616067172166144,-94
599616067179853440,-94
599616067187540736,-92
599616067195228032,-94
599616067202915200,-99
599616067210602496,-111
599616067218289792,-122
599616067225976960,-122
599616067233664256,-115
599616067241351552,-111
599616067249038848,-108
599616067256726016,-85
599616067264413312,-56
599616067272100608,-37
599616067279787904,-16
599616067287475072,16
599616067295162368,21
599616067302849664,4
599616067310536832,-2
599616067318224128,-14
599616067325911424,-44
599616067333598720,-49
599616067341285888,-26
599616067348973184,-14
599616067356660480,-11
599616067364347776,-21
599616067372034944,-56
599616067379722240,-82
599616067387409536,-89
599616067395096696,-94
599616067402784128,-99
599616067410471552,-106
599616067418158976,-101
599616067425846272,-82
599616067433533696,-66
599616067441221120,-113
599616067448908544,-302
599616067456595968,-439
599616067464283392,-49
599616067471970688,971
599616067479658112,1891
599616067487345536,1640
599616067495032960,354
599616067502720384,-503
599616067510407680,-460
599616067518095104,-314
599616067525782528,-283
599616067533469952,-212
599616067541157376,-217
599616067548844800,-276
599616067556532096,-274
599616067564219520,-264
599616067571906944,-286
599616067579594368,-288
599616067587281792,-278
599616067594969088,-274
599616067602656512,-257
599616067610343936,-231
599616067618031360,-222
599616067625718784,-210
599616067633406208,-182
599616067641093504,-151
599616067648780928,-122
599616067656468352,-106
599616067664155776,-104
599616067671843200,-111
599616067679530496,-134
599616067687217920,-172
599616067694905344,-205
599616067702592768,-245
599616067710280192,-290
599616067717967488,-297
599616067725654912,-281
599616067733342336,-283
599616067741029760,-309
599616067748717184,-314
599616067756404608,-295
599616067764091904,-297
599616067771779328,-309
599616067779466752,-300
599616067787154176,-267
599616067794841600,-257
599616067802528896,-278
599616067810216320,-286
599616067817903744,-271
599616067825591168,-274
599616067833278592,-286
599616067840966016,-295
599616067848653312,-295
599616067856340736,-290
599616067864028160,-286
599616067871715584,-257
599616067879403008,-224
599616067887090304,-224
599616067894777728,-234
599616067902465152,-234
599616067910152576,-238
599616067917840000,-234
599616067925527424,-217
599616067933214720,-210
599616067940902144,-215
599616067948589568,-219
599616067956276937,-212
599616067963964160,-281
599616067971651328,-503
599616067979338368,-591
599616067987025536,-85
599616067994712704,940
599616068002399744,1614
599616068010086912,1066
599616068017773952,-167
599616068025461120,-704
599616068033148288,-546
599616068040835328,-427
599616068048522496,-316
599616068056209664,-189
599616068063896704,-203
599616068071583872,-217
599616068079271040,-163
599616068086958080,-146
599616068094645248,-139
599616068102332416,-101
599616068110019456,-96
599616068117706624,-94
599616068125393664,-42
599616068133080832,-7
599616068140768000,-21
599616068148455040,-9
599616068156142208,40
599616068163829376,61
599616068171516416,66
599616068179203584,94
599616068186890752,111
599616068194577792,96
599616068202264960,82
599616068209952000,68
599616068217639168,49
599616068225326336,28
599616068233013376,16
599616068240700544,7
599616068248387712,-9
599616068256074752,-9
599616068263761920,23
599616068271449088,40
599616068279136128,26
599616068286823296,44
599616068294510464,82
599616068302197504,73
599616068309884672,63
599616068317571712,96
599616068325258880,115
599616068332946048,113
599616068340633088,115
599616068348320256,111
599616068356007424,111
599616068363694464,82
599616068371381632,35
599616068379068800,21
599616068386755840,28
599616068394443008,49
599616068402130048,101
599616068409817216,106
599616068417504384,66
599616068425191424,70
599616068432878592,66
599616068440565760,14
599616068448252800,0
599616068455939968,30
599616068463627136,26
599616068471314176,2
599616068479001344,-7
599616068486688384,-73
599616068494375552,-260
599616068502062720,-373
599616068509749760,11
599616068517436834,985
599616068525123968,1858
599616068532811136,1553
599616068540498176,193
599616068548185344,-633
599616068555872512,-491
599616068563559552,-319
599616068571246720,-264
599616068578933760,-111
599616068586620928,-68
599616068594308096,-111
599616068601995136,-78
599616068609682304,-44
599616068617369472,-66
599616068625056512,-73
599616068632743680,-42
599616068640430848,-23
599616068648117888,-21
599616068655805056,-2
599616068663492224,40
599616068671179264,59
599616068678866432,52
599616068686553472,80
599616068694240640,134
599616068701927808,151
599616068709614848,130
599616068717302016,104
599616068724989184,82
599616068732676224,85
599616068740363392,73
599616068748050560,-9
599616068755737600,-113
599616068763424768,-193
599616068771111808,-243
599616068778798976,-290
599616068786486144,-354
599616068794173184,-385
599616068801860352,-394
599616068809547520,-432
599616068817234560,-430
599616068824921728,-411
599616068832608896,-451
599616068840295936,-472
599616068847983104,-390
599616068855670272,-302
599616068863357312,-326
599616068871044480,-345
599616068878731520,-286
599616068886418688,-252
599616068894105856,-241
599616068901792896,-191
599616068909480064,-130
599616068917167232,-85
599616068924854272,-92
599616068932541440,-139
599616068940228608,-193
599616068947915648,-186
599616068955602816,-113
599616068963289856,-82
599616068970977024,-108
599616068978664192,-167
599616068986351232,-224
599616068994038400,-134
599616069001725568,-61
599616069009412608,-385
599616069017099776,-654
599616069024786944,-148
599616069032473984,780
599616069040161152,1475
599616069047848192,1364
599616069055535360,40
599616069063222528,-1101
599616069070909568,-841
599616069078596731,-345
599616069086283904,-248
599616069093971072,-49
599616069101658112,-7
599616069109345280,-189
599616069117032448,-186
599616069124719488,-99
599616069132406656,-63
599616069140093696,-33
599616069147780864,-18
599616069155468032,-21
599616069163155072,-61
599616069170842240,-82
599616069178529408,-47
599616069186216448,-11
599616069193903616,28
599616069201590784,82
599616069209277824,125
599616069216964992,156
599616069224652160,158
599616069232339200,87
599616069240026368,18
599616069247713408,4
599616069255400576,-9
599616069263087744,-35
599616069270774784,-61
599616069278461952,-122
599616069286149120,-160
599616069293836160,-146
599616069301523328,-160
599616069309210496,-179
599616069316897536,-189
599616069324584704,-212
599616069332271744,-196
599616069339958912,-165
599616069347646080,-196
599616069355333120,-205
599616069363020288,-165
599616069370707456,-144
599616069378394496,-163
599616069386081664,-224
599616069393768832,-286
599616069401455872,-245
599616069409143040,-174
599616069416830208,-177
599616069424517248,-186
599616069432204416,-160
599616069439891456,-151
599616069447578624,-165
599616069455265792,-170
599616069462952832,-167
599616069470640000,-160
599616069478327168,-146
599616069486014208,-148
599616069493701376,-153
599616069501388544,-144
599616069509075584,-146
599616069516762752,-205
599616069524449792,-352
599616069532136960,-361
599616069539824128,106
599616069547511168,938
599616069555198336,1463
599616069562885504,943
599616069570572544,-255
599616069578259712,-799
599616069585946880,-557
599616069593633920,-356
599616069601321088,-252
599616069609008256,-120
599616069616695296,-101
599616069624382464,-106
599616069632069504,-59
599616069639756632,-59
599616069647443840,-78
599616069655131008,-61
599616069662818048,-52
599616069670505216,-49
599616069678192384,-16
599616069685879424,14
599616069693566592,23
599616069701253632,21
599616069708940800,21
599616069716627968,49
599616069724315008,99
599616069732002176,132
599616069739689344,115
599616069747376384,85
599616069755063552,73
599616069762750720,61
599616069770437760,23
599616069778124928,-9
599616069785812096,-23
599616069793499136,-30
599616069801186304,-52
599616069808873344,-85
599616069816560512,-104
599616069824247680,-104
599616069831934720,-104
599616069839621888,-120
599616069847309056,-151
599616069854996096,-163
599616069862683264,-134
599616069870370432,-68
599616069878057472,-49
599616069885744640,-125
599616069893431680,-174
599616069901118848,-139
599616069908806016,-115
599616069916493056,-139
599616069924180224,-182
599616069931867392,-163
599616069939554432,-80
599616069947241600,-89
599616069954928768,-153
599616069962615808,-127
599616069970302976,-106
599616069977990144,-163
599616069985677184,-182
599616069993364352,-108
599616070001051392,-40
599616070008738560,-96
599616070016425728,-184
599616070024112768,-271
599616070031799936,-503
599616070039487104,-557
599616070047174144,28
599616070054861312,966
599616070062548480,1501
599616070070235520,940
599616070077922688,-236
599616070085609728,-713
599616070093296896,-569
599616070100984064,-513
599616070108671104,-335
599616070116358272,-96
599616070124045440,-210
599616070131732480,-390
599616070139419648,-271
599616070147106816,-125
599616070154793856,-210
599616070162481024,-295
599616070170168064,-215
599616070177855232,-165
599616070185542400,-186
599616070193229440,-160
599616070200916529,-193
599616070208603648,-191
599616070216290816,-9
599616070223977856,35
599616070231665024,-68
599616070239352192,-35
599616070247039232,-30
599616070254726400,-104
599616070262413440,-40
599616070270100608,4
599616070277787776,-99
599616070285474816,-151
599616070293161984,-125
599616070300849152,-120
599616070308536192,-120
599616070316223360,-170
599616070323910528,-245
599616070331597568,-212
599616070339284736,-163
599616070346971904,-189
599616070354658944,-174
599616070362346112,-172
599616070370033152,-257
599616070377720320,-222
599616070385407488,-148
599616070393094528,-182
599616070400781696,-179
599616070408468864,-172
599616070416155904,-260
599616070423843072,-297
599616070431530240,-179
599616070439217280,-139
599616070446904448,-215
599616070454591488,-139
599616070462278656,-30
599616070469965824,-78
599616070477652864,-92
599616070485340032,-2
599616070493027200,21
599616070500714240,73
599616070508401408,198
599616070516088576,210
599616070523775616,236
599616070531462784,330
599616070539149952,248
599616070546836992,309
599616070554524160,1049
599616070562211200,2186
599616070569898368,2841
599616070577585536,2399
599616070585272576,1439
599616070592959744,1089
599616070600646912,1302
599616070608333952,1565
599616070616021120,1886
599616070623708288,2208
599616070631395328,2446
599616070639082496,2713
599616070646769536,3108
599616070654456704,3732
599616070662143872,4966
599616070669830912,8134
599616070677518080,13220
599616070685205248,16080
599616070692892288,14539
599616070700579456,12002
599616070708266624,10234
599616070715953664,7903
599616070723640832,5427
599616070731327872,3929
599616070739015040,2891
599616070746702208,1919
599616070754389248,1368
599616070762076426,1047
599616070769763712,543
599616070777451008,-44
599616070785138432,-472
599616070792825728,-770
599616070800513024,-1118
599616070808200320,-1487
599616070815887744,-1773
599616070823575040,-1981
599616070831262336,-2170
599616070838949632,-2409
599616070846637056,-2659
599616070854324352,-2860
599616070862011648,-3082
599616070869699072,-3371
599616070877386368,-3638
599616070885073664,-3832
599616070892760960,-3917
599616070900448384,-3865
599616070908135680,-3787
599616070915822976,-3754
599616070923510272,-3678
599616070931197696,-3553
599616070938884992,-3439
599616070946572288,-3319
599616070954259712,-3191
599616070961947008,-3094
599616070969634304,-2990
599616070977321600,-2825
599616070985009024,-2659
599616070992696320,-2527
599616071000383616,-2342
599616071008070912,-2115
599616071015758336,-1910
599616071023445632,-1638
599616071031132928,-1368
599616071038820352,-1361
599616071046507648,-1621
599616071054194944,-1723
599616071061882240,-1212
599616071069569664,-132
599616071077256960,557
599616071084944256,4
599616071092631552,-898
599616071100318976,-1047
599616071108006272,-865
599616071115693568,-869
599616071123380992,-1004
599616071131068288,-1189
599616071138755584,-1309
599616071146442880,-1406
599616071154130304,-1593
599616071161817600,-1709
599616071169504896,-1695
599616071177192192,-1801
599616071184879616,-1948
599616071192566912,-1874
599616071200254208,-1780
599616071207941632,-1839
599616071215628928,-1900
599616071223316224,-1862
599616071231003520,-1773
599616071238690944,-1794
599616071246378240,-1959
599616071254065536,-1992
599616071261752832,-1872
599616071269440256,-1855
599616071277127552,-1924
599616071284814848,-1891
599616071292502272,-1765
599616071300189568,-1643
599616071307876864,-1624
599616071315564160,-1730
599616071323251584,-1737
599616071330938752,-1574
599616071338625920,-1543
599616071346313088,-1661
599616071354000384,-1609
599616071361687552,-1458
599616071369374720,-1425
599616071377061888,-1413
599616071384749056,-1335
599616071392436224,-1250
599616071400123520,-1238
599616071407810688,-1262
599616071415497856,-1226
599616071423185024,-1215
599616071430872192,-1236
599616071438559488,-1177
599616071446246656,-1122
599616071453933824,-1134
599616071461620992,-1125
599616071469308160,-1066
599616071476995328,-1014
599616071484682624,-1042
599616071492369792,-1087
599616071500056960,-1007
599616071507744128,-926
599616071515431296,-966
599616071523118592,-938
599616071530805760,-836
599616071538492928,-846
599616071546180096,-957
599616071553867264,-1170
599616071561554560,-1241
599616071569241728,-725
599616071576928896,297
599616071584616064,1066
599616071592303232,744
599616071599990400,-345
599616071607677696,-931
599616071615364864,-803
599616071623052032,-666
599616071630739200,-609
599616071638426368,-534
599616071646113664,-539
599616071653800832,-529
599616071661488000,-463
599616071669175168,-449
599616071676862336,-465
599616071684549504,-484
599616071692236800,-491
599616071699923968,-401
599616071707611136,-312
599616071715298304,-330
599616071722985472,-342
599616071730672768,-314
599616071738359936,-260
599616071746047104,-170
599616071753734272,-118
599616071761421440,-184
599616071769108608,-276
599616071776795904,-217
599616071784483072,-127
599616071792170240,-205
599616071799857408,-323
599616071807544576,-345
599616071815231872,-328
599616071822919040,-349
599616071830606208,-404
599616071838293376,-432
599616071845980544,-432
599616071853667840,-406
599616071861355008,-323
599616071869042176,-276
599616071876729344,-349
599616071884416568,-401
599616071892103680,-347
599616071899790848,-278
599616071907478016,-252
599616071915165312,-309
599616071922852480,-399
599616071930539648,-382
599616071938226816,-326
599616071945913984,-352
599616071953601152,-378
599616071961288448,-328
599616071968975616,-293
599616071976662784,-330
599616071984349952,-340
599616071992037120,-304
599616071999724416,-304
599616072007411584,-312
599616072015098752,-321
599616072022785920,-361
599616072030473088,-356
599616072038160256,-316
599616072045847552,-345
599616072053534720,-520
599616072061221888,-723
599616072068909056,-579
599616072076596224,186
599616072084283520,1186
599616072091970688,1290
599616072099657856,182
599616072107345024,-742
599616072115032192,-751
599616072122719488,-654
599616072130406656,-635
599616072138093824,-437
599616072145780992,-361
599616072153468160,-453
599616072161155328,-439
599616072168842624,-316
599616072176529792,-200
599616072184216960,-196
599616072191904128,-328
599616072199591296,-375
599616072207278592,-269
599616072214965760,-179
599616072222652928,-172
599616072230340096,-198
599616072238027264,-196
599616072245714432,-167
599616072253401728,-122
599616072261088896,-52
599616072268776064,2
599616072276463232,-21
599616072284150400,-106
599616072291837696,-156
599616072299524864,-122
599616072307212032,-120
599616072314899200,-177
599616072322586368,-219
599616072330273536,-153
599616072337960832,-75
599616072345648000,-174
599616072353335168,-307
599616072361022336,-208
599616072368709504,40
599616072376396800,56
599616072384083968,-163
599616072391771136,-222
599616072399458304,-35
599616072407145472,89
599616072414832768,-2
599616072422519936,-49
599616072430207104,-7
599616072437894272,-68
599616072445581552,-92
599616072453268352,-21
599616072460955136,40
599616072468641920,75
599616072476328704,44
599616072484015488,23
599616072491702272,56
599616072499389056,-26
599616072507075712,-158
599616072514762496,-125
599616072522449280,-42
599616072530136064,11
599616072537822848,82
599616072545509632,47
599616072553196416,-54
599616072560883200,-146
599616072568569984,-338
599616072576256768,-444
599616072583943552,21
599616072591630336,1028
599616072599316992,1650
599616072607003776,936
599616072614690560,-463
599616072622377344,-860
599616072630064128,-453
599616072637750912,-397
599616072645437696,-378
599616072653124480,-118
599616072660811264,-47
599616072668498048,-89
599616072676184832,-49
599616072683871616,-56
599616072691558272,-70
599616072699245056,-16
599616072706931840,-28
599616072714618624,-70
599616072722305408,-18
599616072729992192,-2
599616072737678976,-33
599616072745365760,23
599616072753052544,85
599616072760739328,108
599616072768426112,132
599616072776112896,118
599616072783799552,115
599616072791486336,87
599616072799173120,23
599616072806859904,47
599616072814546688,40
599616072822233472,-101
599616072829920256,-174
599616072837607040,-141
599616072845293824,-118
599616072852980608,-134
599616072860667392,-165
599616072868354176,-151
599616072876040832,-125
599616072883727616,-160
599616072891414400,-238
599616072899101184,-260
599616072906787968,-191
599616072914474752,-139
599616072922161536,-172
599616072929848320,-189
599616072937535104,-167
599616072945221888,-182
599616072952908672,-198
599616072960595456,-200
599616072968282112,-203
599616072975968896,-172
599616072983655680,-120
599616072991342464,-118
599616072999029248,-198
599616073006716014,-238
599616073014403200,-186
599616073022090368,-182
599616073029777536,-219
599616073037464832,-203
599616073045152000,-174
599616073052839168,-200
599616073060526336,-193
599616073068213504,-231
599616073075900672,-479
599616073083587968,-704
599616073091275136,-432
599616073098962304,482
599616073106649472,1581
599616073114336640,1801
599616073122023936,565
599616073129711104,-791
599616073137398272,-893
599616073145085440,-522
599616073152772608,-503
599616073160459904,-406
599616073168147072,-200
599616073175834240,-229
599616073183521408,-328
599616073191208576,-319
599616073198895744,-271
599616073206583040,-250
599616073214270208,-234
599616073221957376,-198
599616073229644544,-193
599616073237331712,-189
599616073245019008,-153
599616073252706176,-132
599616073260393344,-87
599616073268080512,0
599616073275767680,37
599616073283454848,16
599616073291142144,-16
599616073298829312,-16
599616073306516480,49
599616073314203648,56
599616073321890816,-44
599616073329578112,-113
599616073337265280,-158
599616073344952448,-193
599616073352639616,-177
599616073360326784,-224
599616073368013952,-297
599616073375701248,-288
599616073383388416,-288
599616073391075584,-290
599616073398762752,-236
599616073406449920,-238
599616073414137216,-290
599616073421824384,-257
599616073429511552,-196
599616073437198720,-198
599616073444885888,-217
599616073452573184,-229
599616073460260352,-224
599616073467947520,-198
599616073475634688,-179
599616073483321856,-212
599616073491009024,-255
599616073498696320,-226
599616073506383488,-165
599616073514070656,-170
599616073521757824,-217
599616073529444992,-243
599616073537132288,-200
599616073544819456,-163
599616073552506624,-224
599616073560193792,-295
599616073567881002,-245
599616073575568384,-182
599616073583255808,-267
599616073590943360,-503
599616073598630784,-713
599616073606318208,-401
599616073614005760,687
599616073621693184,1758
599616073629380736,1579
599616073637068160,203
599616073644755584,-754
599616073652443136,-685
599616073660130560,-527
599616073667817984,-494
599616073675505536,-312
599616073683192960,-236
599616073690880384,-347
599616073698567936,-330
599616073706255360,-198
599616073713942912,-219
599616073721630336,-271
599616073729317760,-186
599616073737005312,-170
599616073744692736,-208
599616073752380160,-163
599616073760067712,-96
599616073767755136,-52
599616073775442560,-28
599616073783130112,-9
599616073790817536,35
599616073798504960,52
599616073806192512,52
599616073813879936,75
599616073821567488,75
599616073829254912,30
599616073836942336,-7
599616073844629888,-18
599616073852317312,-63
599616073860004736,-137
599616073867692288,-163
599616073875379712,-167
599616073883067136,-167
599616073890754688,-132
599616073898442112,-127
599616073906129664,-193
599616073913817088,-252
599616073921504512,-198
599616073929192064,-87
599616073936879488,-96
599616073944566912,-179
599616073952254464,-160
599616073959941888,-87
599616073967629312,-115
599616073975316864,-196
599616073983004288,-170
599616073990691840,-101
599616073998379264,-132
599616074006066688,-172
599616074013754240,-130
599616074021441664,-111
599616074029129088,-151
599616074036816640,-104
599616074044504064,-59
599616074052191488,-120
599616074059879040,-158
599616074067566464,-141
599616074075253888,-144
599616074082941440,-130
599616074090628864,-113
599616074098316416,-163
599616074106003840,-316
599616074113691264,-546
599616074121378816,-508
599616074129066330,193
599616074136753536,1314
599616074144440704,1917
599616074152127744,1222
599616074159814912,-75
599616074167502080,-569
599616074175189120,-385
599616074182876288,-330
599616074190563328,-309
599616074198250496,-182
599616074205937664,-153
599616074213624704,-182
599616074221311872,-170
599616074228999040,-160
599616074236686080,-137
599616074244373248,-94
599616074252060416,-85
599616074259747456,-87
599616074267434624,-70
599616074275121792,-68
599616074282808832,-59
599616074290496000,-21
599616074298183040,23
599616074305870208,75
599616074313557376,108
599616074321244416,101
599616074328931584,106
599616074336618752,120
599616074344305792,113
599616074351992960,111
599616074359680128,87
599616074367367168,26
599616074375054336,-4
599616074382741376,-7
599616074390428544,-21
599616074398115712,-49
599616074405802752,-85
599616074413489920,-68
599616074421177088,-21
599616074428864128,-28
599616074436551296,-42
599616074444238464,-44
599616074451925504,-73
599616074459612672,-75
599616074467299840,-56
599616074474986880,-54
599616074482674048,-63
599616074490361088,-106
599616074498048256,-127
599616074505735424,-89
599616074513422464,-94
599616074521109632,-148
599616074528796800,-132
599616074536483840,-73
599616074544171008,-92
599616074551858176,-141
599616074559545216,-144
599616074567232384,-141
599616074574919424,-170
599616074582606592,-191
599616074590293760,-184
599616074597980800,-167
599616074605667968,-179
599616074613355136,-200
599616074621042176,-186
599616074628729344,-236
599616074636416512,-453
599616074644103552,-609
599616074651790720,-222
599616074659477760,801
599616074667164928,1735
599616074674852096,1465
599616074682539136,111
599616074690226227,-735
599616074697913344,-602
599616074705600512,-453
599616074713287552,-444
599616074720974720,-302
599616074728661888,-245
599616074736348928,-314
599616074744036096,-312
599616074751723136,-267
599616074759410304,-257
599616074767097472,-245
599616074774784512,-224
599616074782471680,-193
599616074790158848,-160
599616074797845888,-153
599616074805533056,-153
599616074813220224,-156
599616074820907264,-134
599616074828594432,-85
599616074836281600,-52
599616074843968640,-26
599616074851655808,-7
599616074859342848,-33
599616074867030016,-92
599616074874717184,-101
599616074882404224,-68
599616074890091392,-141
599616074897778560,-267
599616074905465600,-288
599616074913152768,-260
599616074920839936,-290
599616074928526976,-326
599616074936214144,-323
599616074943901184,-316
599616074951588352,-330
599616074959275520,-338
599616074966962560,-323
599616074974649728,-309
599616074982336896,-316
599616074990023936,-328
599616074997711104,-335
599616075005398272,-333
599616075013085312,-326
599616075020772480,-342
599616075028459648,-368
599616075036146688,-373
599616075043833856,-359
599616075051520896,-330
599616075059208064,-307
599616075066895232,-304
599616075074582272,-314
599616075082269440,-319
599616075089956608,-323
599616075097643648,-349
599616075105330816,-361
599616075113017984,-342
599616075120705024,-345
599616075128392192,-352
599616075136079232,-330
599616075143766400,-333
599616075151453568,-437
599616075159140608,-683
599616075166827776,-851
599616075174514944,-442
599616075182201984,638
599616075189889152,1624
599616075197576320,1406
599616075205263360,101
599616075212950528,-777
599616075220637568,-716
599616075228324736,-567
599616075236011904,-550
599616075243698944,-434
599616075251386124,-390
599616075259073280,-442
599616075266760448,-416
599616075274447488,-361
599616075282134656,-366
599616075289821824,-364
599616075297508864,-330
599616075305196032,-319
599616075312883072,-316
599616075320570240,-300
599616075328257408,-286
599616075335944448,-260
599616075343631616,-212
599616075351318784,-179
599616075359005824,-170
599616075366692992,-132
599616075374380160,-99
599616075382067200,-115
599616075389754368,-137
599616075397441536,-144
599616075405128576,-167
599616075412815744,-196
599616075420502784,-212
599616075428189952,-234
599616075435877120,-262
599616075443564160,-276
599616075451251328,-278
599616075458938496,-281
599616075466625536,-286
599616075474312704,-293
599616075481999872,-295
599616075489686912,-295
599616075497374080,-295
599616075505061120,-300
599616075512748288,-300
599616075520435456,-281
599616075528122496,-269
599616075535809664,-276
599616075543496832,-276
599616075551183872,-283
599616075558871040,-309
599616075566558208,-321
599616075574245248,-293
599616075581932416,-278
599616075589619584,-304
599616075597306624,-307
599616075604993792,-286
599616075612680832,-307
599616075620368000,-328
599616075628055168,-312
599616075635742208,-295
599616075643429376,-290
599616075651116544,-288
599616075658803584,-274
599616075666490752,-260
599616075674177920,-347
599616075681864960,-565
599616075689552128,-773
599616075697239168,-643
599616075704926336,153
599616075712613504,1267
599616075720300544,1565
599616075727987712,534
599616075735674880,-640
599616075743361920,-813
599616075751049088,-520
599616075758736256,-430
599616075766423296,-382
599616075774110464,-314
599616075781797504,-307
599616075789484672,-290
599616075797171840,-269
599616075804858880,-264
599616075812546021,-243
599616075820233216,-248
599616075827920384,-267
599616075835607424,-248
599616075843294592,-236
599616075850981760,-238
599616075858668800,-205
599616075866355968,-174
599616075874043008,-177
599616075881730176,-146
599616075889417344,-94
599616075897104384,-82
599616075904791552,-99
599616075912478720,-125
599616075920165760,-141
599616075927852928,-144
599616075935540096,-174
599616075943227136,-200
599616075950914304,-191
599616075958601472,-208
599616075966288512,-226
599616075973975680,-198
599616075981662720,-179
599616075989349888,-182
599616075997037056,-167
599616076004724096,-165
599616076012411264,-160
599616076020098432,-139
599616076027785472,-158
599616076035472640,-170
599616076043159808,-158
599616076050846848,-186
599616076058534016,-203
599616076066221056,-182
599616076073908224,-205
599616076081595392,-243
599616076089282432,-215
599616076096969600,-203
599616076104656768,-234
599616076112343808,-208
599616076120030976,-156
599616076127718144,-158
599616076135405184,-174
599616076143092352,-189
599616076150779520,-200
599616076158466560,-198
599616076166153728,-203
599616076173840768,-226
599616076181527936,-215
599616076189215104,-182
599616076196902144,-179
599616076204589312,-252
599616076212276480,-453
599616076219963520,-647
599616076227650688,-390
599616076235337856,555
599616076243024896,1593
599616076250712064,1555
599616076258399104,257
599616076266086272,-780
599616076273773440,-676
599616076281460480,-378
599616076289147648,-375
599616076296834816,-300
599616076304521856,-226
599616076312209024,-260
599616076319896192,-252
599616076327583232,-222
599616076335270400,-234
599616076342957440,-236
599616076350644608,-217
599616076358331776,-203
599616076366018816,-200
599616076373705918,-198
599616076381393024,-182
599616076389080192,-153
599616076396767232,-141
599616076404454400,-139
599616076412141568,-122
599616076419828608,-104
599616076427515776,-104
599616076435202816,-134
599616076442889984,-170
599616076450577152,-179
599616076458264192,-196
599616076465951360,-245
599616076473638528,-300
599616076481325568,-330
599616076489012736,-345
599616076496699904,-342
599616076504386944,-330
599616076512074112,-323
599616076519761280,-302
599616076527448320,-267
599616076535135488,-255
599616076542822528,-276
599616076550509696,-264
599616076558196864,-224
599616076565883904,-224
599616076573571072,-248
599616076581258240,-245
599616076588945280,-248
599616076596632448,-274
599616076604319616,-293
599616076612006656,-302
599616076619693824,-302
599616076627380864,-286
599616076635068032,-269
599616076642755200,-245
599616076650442240,-210
599616076658129408,-191
599616076665816576,-208
599616076673503616,-245
599616076681190784,-267
599616076688877952,-274
599616076696564992,-271
599616076704252160,-255
599616076711939328,-267
599616076719626368,-278
599616076727313536,-288
599616076735000576,-439
599616076742687744,-702
599616076750374912,-624
599616076758061952,146
599616076765749120,1226
599616076773436288,1461
599616076781123328,234
599616076788810496,-1049
599616076796497664,-1104
599616076804184704,-751
599616076811871872,-628
599616076819558912,-491
599616076827246080,-472
599616076834933248,-574
599616076842620288,-572
599616076850307456,-527
599616076857994624,-550
599616076865681664,-576
599616076873368832,-574
599616076881056000,-572
599616076888743040,-553
599616076896430208,-520
599616076904117376,-487
599616076911804416,-439
599616076919491584,-371
599616076927178624,-307
599616076934865819,-248
599616076942552960,-174
599616076950240128,-118
599616076957927168,-85
599616076965614336,-42
599616076973301504,-16
599616076980988544,-40
599616076988675712,-59
599616076996362752,-59
599616077004049920,-44
599616077011737088,-11
599616077019424128,-7
599616077027111296,-47
599616077034798464,-16
599616077042485504,99
599616077050172672,141
599616077057859840,113
599616077065546880,139
599616077073234048,167
599616077080921216,137
599616077088608256,125
599616077096295424,137
599616077103982464,111
599616077111669632,70
599616077119356800,66
599616077127043840,66
599616077134731008,40
599616077142418176,18
599616077150105216,18
599616077157792384,21
599616077165479552,35
599616077173166592,49
599616077180853760,35
599616077188540800,9
599616077196227968,0
599616077203915136,4
599616077211602176,0
599616077219289344,-18
599616077226976512,-37
599616077234663552,-49
599616077242350720,-33
599616077250037888,-59
599616077257724928,-238
599616077265412096,-427
599616077273099264,-196
599616077280786304,671
599616077288473472,1586
599616077296160512,1456
599616077303847680,260
599616077311534848,-574
599616077319221888,-484
599616077326909056,-262
599616077334596224,-177
599616077342283264,-78
599616077349970432,-49
599616077357657600,-70
599616077365344640,-37
599616077373031808,0
599616077380718848,-4
599616077388406016,0
599616077396093184,18
599616077403780224,26
599616077411467392,44
599616077419154560,78
599616077426841600,101
599616077434528768,115
599616077442215936,125
599616077449902976,146
599616077457590144,160
599616077465277184,141
599616077472964352,139
599616077480651520,165
599616077488338560,141
599616077496025716,94
599616077503713024,99
599616077511400320,115
599616077519087744,108
599616077526775040,115
599616077534462336,130
599616077542149632,141
599616077549837056,153
599616077557524352,137
599616077565211648,134
599616077572898944,179
599616077580586368,200
599616077588273664,186
599616077595960960,191
599616077603648384,184
599616077611335680,158
599616077619022976,167
599616077626710272,174
599616077634397696,141
599616077642084992,146
599616077649772288,167
599616077657459584,144
599616077665147008,141
599616077672834304,172
599616077680521600,156
599616077688209024,177
599616077695896320,243
599616077703583616,231
599616077711270912,186
599616077718958336,170
599616077726645632,151
599616077734332928,153
599616077742020224,165
599616077749707648,182
599616077757394944,198
599616077765082240,167
599616077772769664,49
599616077780456960,-153
599616077788144256,-252
599616077795831552,151
599616077803518976,1151
599616077811206272,1974
599616077818893568,1520
599616077826580864,179
599616077834268288,-465
599616077841955584,-293
599616077849642880,-165
599616077857330304,-75
599616077865017600,73
599616077872704896,52
599616077880392192,-9
599616077888079616,23
599616077895766912,14
599616077903454208,-28
599616077911141504,14
599616077918828928,70
599616077926516224,61
599616077934203520,47
599616077941890944,61
599616077949578240,80
599616077957265536,68
599616077964952832,63
599616077972640256,122
599616077980327552,174
599616077988014848,170
599616077995702144,170
599616078003389568,158
599616078011076864,120
599616078018764160,92
599616078026451584,75
599616078034138880,78
599616078041826176,59
599616078049513472,7
599616078057200874,-33
599616078064888064,-56
599616078072575232,-82
599616078080262400,-89
599616078087949696,-75
599616078095636864,-68
599616078103324032,-78
599616078111011200,-96
599616078118698368,-96
599616078126385536,-78
599616078134072832,-89
599616078141760000,-125
599616078149447168,-134
599616078157134336,-125
599616078164821504,-125
599616078172508800,-146
599616078180195968,-160
599616078187883136,-144
599616078195570304,-130
599616078203257472,-115
599616078210944640,-113
599616078218631936,-148
599616078226319104,-186
599616078234006272,-172
599616078241693440,-144
599616078249380608,-151
599616078257067904,-163
599616078264755072,-148
599616078272442240,-134
599616078280129408,-184
599616078287816576,-380
599616078295503872,-638
599616078303191040,-494
599616078310878208,401
599616078318565376,1541
599616078326252544,1709
599616078333939712,494
599616078341627008,-664
599616078349314176,-721
599616078357001344,-487
599616078364688512,-432
599616078372375680,-250
599616078380062976,-115
599616078387750144,-153
599616078395437312,-156
599616078403124480,-122
599616078410811648,-139
599616078418498816,-153
599616078426186112,-125
599616078433873280,-104
599616078441560448,-108
599616078449247616,-101
599616078456934784,-80
599616078464622080,-59
599616078472309248,-9
599616078479996416,44
599616078487683584,59
599616078495370752,56
599616078503057920,68
599616078510745216,66
599616078518432384,35
599616078526119552,-2
599616078533806720,-30
599616078541493888,-59
599616078549181184,-85
599616078556868352,-115
599616078564555520,-141
599616078572242688,-151
599616078579929856,-172
599616078587617152,-200
599616078595304320,-191
599616078602991488,-165
599616078610678656,-167
599616078618365858,-182
599616078626053120,-191
599616078633740416,-203
599616078641427584,-222
599616078649114880,-236
599616078656802176,-238
599616078664489472,-255
599616078672176640,-300
599616078679863936,-335
599616078687551232,-335
599616078695238528,-328
599616078702925696,-323
599616078710612992,-312
599616078718300288,-312
599616078725987456,-335
599616078733674752,-366
599616078741362048,-387
599616078749049344,-390
599616078756736512,-371
599616078764423808,-347
599616078772111104,-335
599616078779798400,-342
599616078787485568,-352
599616078795172864,-427
599616078802860160,-666
599616078810547328,-817
599616078818234624,-387
599616078825921920,671
599616078833609216,1574
599616078841296384,1212
599616078848983680,-186
599616078856670976,-978
599616078864358272,-775
599616078872045440,-557
599616078879732736,-510
599616078887420032,-406
599616078895107200,-378
599616078902794496,-408
599616078910481792,-385
599616078918169088,-361
599616078925856256,-373
599616078933543552,-371
599616078941230848,-354
599616078948918144,-326
599616078956605312,-295
599616078964292608,-281
599616078971979904,-278
599616078979667072,-255
599616078987354368,-222
599616078995041664,-208
599616079002728960,-203
599616079010416128,-193
599616079018103424,-179
599616079025790720,-189
599616079033478016,-196
599616079041165184,-184
599616079048852480,-174
599616079056539776,-167
599616079064226944,-139
599616079071914240,-118
599616079079601536,-99
599616079087288832,-59
599616079094976000,-40
599616079102663296,-49
599616079110350592,-37
599616079118037888,-21
599616079125725056,-16
599616079133412352,-11
599616079141099648,-2
599616079148786944,-4
599616079156474112,-14
599616079164161408,-14
599616079171848704,-18
599616079179535925,-35
599616079187223040,-37
599616079194910208,-40
599616079202597248,-49
599616079210284416,-42
599616079217971584,-21
599616079225658624,-14
599616079233345792,-18
599616079241032832,-35
599616079248720000,-49
599616079256407168,-49
599616079264094208,-44
599616079271781376,-49
599616079279468544,-40
599616079287155584,-28
599616079294842752,-35
599616079302529920,-61
599616079310216960,-177
599616079317904128,-408
599616079325591296,-427
599616079333278336,174
599616079340965504,1210
599616079348652544,1725
599616079356339712,921
599616079364026880,-359
599616079371713920,-704
599616079379401088,-413
599616079387088256,-288
599616079394775296,-229
599616079402462464,-158
599616079410149632,-165
599616079417836672,-184
599616079425523840,-170
599616079433210880,-160
599616079440898048,-151
599616079448585216,-127
599616079456272256,-118
599616079463959424,-113
599616079471646592,-94
599616079479333632,-73
599616079487020800,-68
599616079494707968,-56
599616079502395008,-21
599616079510082176,9
599616079517769344,14
599616079525456384,2
599616079533143552,-9
599616079540830592,-30
599616079548517760,-47
599616079556204928,-26
599616079563891968,-26
599616079571579136,-80
599616079579266304,-99
599616079586953344,-78
599616079594640512,-101
599616079602327680,-151
599616079610014720,-165
599616079617701888,-177
599616079625388928,-167
599616079633076096,-137
599616079640763264,-141
599616079648450304,-153
599616079656137472,-151
599616079663824640,-158
599616079671511680,-184
599616079679198848,-200
599616079686886016,-172
599616079694573056,-165
599616079702260224,-200
599616079709947264,-234
599616079717634432,-226
599616079725321600,-156
599616079733008640,-125
599616079740695822,-170
599616079748382976,-212
599616079756070144,-226
599616079763757312,-198
599616079771444608,-189
599616079779131776,-226
599616079786818944,-231
599616079794506112,-217
599616079802193280,-231
599616079809880448,-234
599616079817567744,-375
599616079825254912,-673
599616079832942080,-640
599616079840629248,132
599616079848316416,1229
599616079856003712,1505
599616079863690880,479
599616079871378048,-607
599616079879065216,-744
599616079886752384,-565
599616079894439680,-498
599616079902126848,-326
599616079909814016,-219
599616079917501184,-283
599616079925188352,-281
599616079932875520,-198
599616079940562816,-191
599616079948249984,-224
599616079955937152,-189
599616079963624320,-141
599616079971311488,-151
599616079978998784,-153
599616079986685952,-106
599616079994373120,-96
599616080002060288,-141
599616080009747456,-78
599616080017434624,21
599616080025121920,-49
599616080032809088,-108
599616080040496256,23
599616080048183424,89
599616080055870592,-85
599616080063557888,-160
599616080071245056,-16
599616080078932224,-42
599616080086619392,-153
599616080094306560,-125
599616080101993728,-134
599616080109681024,-200
599616080117368192,-193
599616080125055360,-170
599616080132742528,-182
599616080140429696,-186
599616080148116992,-184
599616080155804160,-177
599616080163491328,-148
599616080171178496,-148
599616080178865664,-172
599616080186552960,-163
599616080194240128,-165
599616080201927296,-191
599616080209614464,-172
599616080217301632,-139
599616080224988800,-113
599616080232676096,-89
599616080240363264,-104
599616080248050432,-148
599616080255737600,-156
599616080263424768,-118
599616080271112064,-85
599616080278799232,-141
599616080286486400,-226
599616080294173568,-113
599616080301860810,-21
599616080309548288,-172
599616080317235712,-252
599616080324923264,-354
599616080332610688,-640
599616080340298112,-444
599616080347985664,659
599616080355673088,1732
599616080363360640,1404
599616080371048064,-4
599616080378735488,-768
599616080386423040,-609
599616080394110464,-475
599616080401797888,-387
599616080409485440,-193
599616080417172864,-186
599616080424860288,-278
599616080432547840,-257
599616080440235264,-200
599616080447922816,-163
599616080455610240,-125
599616080463297664,-127
599616080470985216,-158
599616080478672640,-132
599616080486360064,-61
599616080494047616,-47
599616080501735040,-78
599616080509422464,-42
599616080517110016,23
599616080524797440,21
599616080532484864,56
599616080540172416,165
599616080547859840,63
599616080555547392,-186
599616080563234816,-28
599616080570922240,208
599616080578609792,-35
599616080586297216,-219
599616080593984640,-52
599616080601672192,4
599616080609359616,-250
599616080617047040,-364
599616080624734592,4
599616080632422016,179
599616080640109568,-106
599616080647796992,-179
599616080655484416,-66
599616080663171968,-115
599616080670859392,-144
599616080678546816,-101
599616080686234368,-106
599616080693921792,-101
599616080701609216,-108
599616080709296768,-182
599616080716984192,-186
599616080724671744,-111
599616080732359168,-120
599616080740046592,-120
599616080747734144,-44
599616080755421568,-78
599616080763108992,-160
599616080770796544,-160
599616080778483968,-146
599616080786171392,-163
599616080793858944,-184
599616080801546368,-179
599616080809233792,-132
599616080816921344,-115
599616080824608768,-260
599616080832296320,-520
599616080839983744,-520
599616080847671168,87
599616080855358720,1106
599616080863046138,1664
599616080870733312,803
599616080878420480,-652
599616080886107520,-919
599616080893794688,-463
599616080901481856,-390
599616080909168896,-281
599616080916856064,-18
599616080924543104,-35
599616080932230272,-127
599616080939917440,-80
599616080947604480,-78
599616080955291648,-127
599616080962978816,-78
599616080970665856,2
599616080978353024,-28
599616080986040192,-44
599616080993727232,21
599616081001414400,44
599616081009101568,42
599616081016788608,61
599616081024475776,78
599616081032162816,130
599616081039849984,177
599616081047537152,158
599616081055224192,108
599616081062911360,125
599616081070598528,174
599616081078285568,101
599616081085972736,-11
599616081093659904,-2
599616081101346944,49
599616081109034112,7
599616081116721152,-106
599616081124408320,-158
599616081132095488,-146
599616081139782528,-139
599616081147469696,-137
599616081155156864,-137
599616081162843904,-146
599616081170531072,-132
599616081178218240,-82
599616081185905280,-66
599616081193592448,-120
599616081201279616,-130
599616081208966656,-82
599616081216653824,-118
599616081224340864,-167
599616081232028032,-108
599616081239715200,-92
599616081247402240,-177
599616081255089408,-231
599616081262776576,-271
599616081270463616,-295
599616081278150784,-321
599616081285837952,-468
599616081293524992,-442
599616081301212160,-151
599616081308899200,-63
599616081316586368,-87
599616081324273536,-75
599616081331960576,-330
599616081339647744,-650
599616081347334912,-472
599616081355021952,503
599616081362709120,1600
599616081370396288,1548
599616081378083328,16
599616081385770496,-1328
599616081393457536,-829
599616081401144704,-108
599616081408831872,-536
599616081416518912,-524
599616081424206035,113
599616081431893248,-42
599616081439580416,-371
599616081447267456,-141
599616081454954624,-106
599616081462641792,-193
599616081470328832,-118
599616081478016000,-130
599616081485703040,-144
599616081493390208,-44
599616081501077376,82
599616081508764416,-92
599616081516451584,-307
599616081524138752,165
599616081531825792,565
599616081539512960,144
599616081547200128,-108
599616081554887168,245
599616081562574336,304
599616081570261504,-108
599616081577948544,49
599616081585635712,399
599616081593322752,-219
599616081601009920,-373
599616081608697088,437
599616081616384128,252
599616081624071296,-290
599616081631758464,-33
599616081639445504,7
599616081647132672,-215
599616081654819840,-151
599616081662506880,-40
599616081670194048,73
599616081677881088,-101
599616081685568256,-269
599616081693255424,186
599616081700942464,144
599616081708629632,-411
599616081716316800,-63
599616081724003840,198
599616081731691008,-229
599616081739378176,-68
599616081747065216,283
599616081754752384,-47
599616081762439552,-255
599616081770126592,16
599616081777813760,-52
599616081785500800,-134
599616081793187968,115
599616081800875136,-151
599616081808562176,-297
599616081816249344,217
599616081823936512,11
599616081831623552,-560
599616081839310720,-434
599616081846997888,-198
599616081854684928,394
599616081862372096,1654
599616081870059136,1924
599616081877746304,418
599616081885433472,-815
599616081893120512,-635
599616081900807680,-335
599616081908494848,-319
599616081916181888,-94
599616081923869056,-18
599616081931556224,-156
599616081939243264,-59
599616081946930432,9
599616081954617472,-158
599616081962304640,-75
599616081969991808,115
599616081977678848,-54
599616081985365932,-111
599616081993052544,130
599616082000739200,61
599616082008425984,-82
599616082016112640,92
599616082023799296,184
599616082031486080,63
599616082039172736,0
599616082046859520,101
599616082054546176,316
599616082062232832,385
599616082069919616,99
599616082077606272,-130
599616082085292928,44
599616082092979712,146
599616082100666368,-104
599616082108353152,-212
599616082116039808,-21
599616082123726464,0
599616082131413248,-191
599616082139099904,-198
599616082146786560,-82
599616082154473344,-18
599616082162160000,85
599616082169846784,73
599616082177533440,-120
599616082185220096,-167
599616082192906880,-137
599616082200593536,-283
599616082208280192,-364
599616082215966976,-132
599616082223653632,9
599616082231340416,-21
599616082239027072,203
599616082246713728,189
599616082254400512,-200
599616082262087168,-198
599616082269773824,-54
599616082277460608,-179
599616082285147264,-193
599616082292834048,-49
599616082300520704,-7
599616082308207360,49
599616082315894144,319
599616082323580800,323
599616082331267456,-465
599616082338954240,-964
599616082346640896,-255
599616082354327680,704
599616082362014336,1361
599616082369700992,1461
599616082377387776,520
599616082385074432,-408
599616082392761088,-319
599616082400447872,-16
599616082408134528,-212
599616082415821312,-382
599616082423507968,-118
599616082431194624,11
599616082438881408,-257
599616082446568064,-300
599616082454254720,-26
599616082461941504,16
599616082469628160,-132
599616082477314944,26
599616082485001600,210
599616082492688256,-82
599616082500375040,-323
599616082508061696,-87
599616082515748352,70
599616082523435136,-7
599616082531121792,-80
599616082538808576,-99
599616082546495311,203
599616082554182528,373
599616082561869696,-111
599616082569556736,-267
599616082577243904,146
599616082584931072,30
599616082592618112,-293
599616082600305280,182
599616082607992320,673
599616082615679488,186
599616082623366656,-248
599616082631053696,111
599616082638740864,141
599616082646428032,-390
599616082654115072,-193
599616082661802240,583
599616082669489408,453
599616082677176448,-68
599616082684863616,234
599616082692550784,361
599616082700237824,-66
599616082707924992,-78
599616082715612032,80
599616082723299200,26
599616082730986368,23
599616082738673408,125
599616082746360576,141
599616082754047744,191
599616082761734784,406
599616082769421952,330
599616082777109120,-23
599616082784796160,73
599616082792483328,463
599616082800170368,302
599616082807857536,37
599616082815544704,375
599616082823231744,446
599616082830918912,-333
599616082838606080,-695
599616082846293120,134
599616082853980288,1139
599616082861667456,1754
599616082869354496,1612
599616082877041664,460
599616082884728832,-302
599616082892415872,18
599616082900103040,234
599616082907790080,-59
599616082915477248,-61
599616082923164416,200
599616082930851456,101
599616082938538624,-113
599616082946225792,113
599616082953912832,385
599616082961600000,177
599616082969287168,-37
599616082976974208,120
599616082984661376,269
599616082992348416,276
599616083000035584,328
599616083007722752,286
599616083015409792,130
599616083023096960,125
599616083030784128,193
599616083038471168,111
599616083046158336,-14
599616083053845504,14
599616083061532544,104
599616083069219712,47
599616083076906752,-68
599616083084593920,66
599616083092281088,267
599616083099968128,70
599616083107655208,-186
599616083115342336,-68
599616083123029504,-30
599616083130716544,-179
599616083138403712,-68
599616083146090880,87
599616083153777920,28
599616083161465088,28
599616083169152128,179
599616083176839296,191
599616083184526464,-66
599616083192213504,-274
599616083199900672,-172
599616083207587840,52
599616083215274880,153
599616083222962048,82
599616083230649216,-18
599616083238336256,-16
599616083246023424,35
599616083253710592,52
599616083261397632,37
599616083269084800,75
599616083276771840,54
599616083284459008,-56
599616083292146176,-14
599616083299833216,134
599616083307520384,70
599616083315207552,-94
599616083322894592,-127
599616083330581760,-264
599616083338268928,-323
599616083345955968,113
599616083353643136,1063
599616083361330176,1978
599616083369017344,1463
599616083376704512,-217
599616083384391552,-931
599616083392078720,-501
599616083399765888,-153
599616083407452928,-137
599616083415140096,-127
599616083422827264,-54
599616083430514304,-96
599616083438201472,-66
599616083445888640,146
599616083453575680,14
599616083461262848,-293
599616083468949888,-87
599616083476637056,184
599616083484324224,49
599616083492011264,-42
599616083499698432,87
599616083507385600,132
599616083515072640,30
599616083522759808,33
599616083530446976,250
599616083538134016,238
599616083545821184,-59
599616083553508224,18
599616083561195392,319
599616083568882560,264
599616083576569600,30
599616083584256768,28
599616083591943936,198
599616083599630976,30
599616083607318144,-281
599616083615005312,-78
599616083622692352,130
599616083630379520,-78
599616083638066688,-137
599616083645753728,-9
599616083653440896,-37
599616083661127936,-54
599616083668815109,40
599616083676502272,-28
599616083684189440,-125
599616083691876480,-54
599616083699563648,-104
599616083707250816,-182
599616083714937856,2
599616083722625024,70
599616083730312064,-87
599616083737999232,-61
599616083745686400,59
599616083753373440,-63
599616083761060608,-210
599616083768747776,-73
599616083776434816,61
599616083784121984,-80
599616083791809152,-182
599616083799496192,2
599616083807183360,70
599616083814870528,-101
599616083822557568,-191
599616083830244736,-316
599616083837931776,-356
599616083845618944,304
599616083853306112,1356
599616083860993152,1520
599616083868680320,328
599616083876367488,-810
599616083884054528,-723
599616083891741696,-430
599616083899428864,-397
599616083907115904,-26
599616083914803072,68
599616083922490112,-276
599616083930177280,-286
599616083937864448,-160
599616083945551488,-243
599616083953238656,-319
599616083960925824,-290
599616083968612864,-205
599616083976300032,-231
599616083983987200,-226
599616083991674240,37
599616083999361408,101
599616084007048576,-23
599616084014735616,33
599616084022422784,-66
599616084030109824,-236
599616084037796992,-182
599616084045484160,-158
599616084053171200,-172
599616084060858368,-73
599616084068545536,-47
599616084076232576,-132
599616084083919744,-191
599616084091606912,-215
599616084099293952,-96
599616084106981120,80
599616084114668160,92
599616084122355328,-120
599616084130042496,-449
599616084137729536,-520
599616084145416704,-347
599616084153103872,-278
599616084160790912,-465
599616084168478080,-680
599616084176165248,-319
599616084183852288,156
599616084191539456,0
599616084199226496,-184
599616084206913664,-212
599616084214600832,-335
599616084222287872,-276
599616084229975006,-257
599616084237661952,-529
599616084245348864,-635
599616084253035776,-281
599616084260722688,37
599616084268409600,-85
599616084276096512,-193
599616084283783424,-113
599616084291470336,-278
599616084299157248,-437
599616084306844160,-217
599616084314531072,-144
599616084322217984,-553
599616084329904896,-933
599616084337591808,-541
599616084345278720,600
599616084352965632,1470
599616084360652544,1238
599616084368339456,73
599616084376026368,-962
599616084383713280,-1111
599616084391400192,-711
599616084399087104,-250
599616084406774016,-73
599616084414460928,-290
599616084422147840,-482
599616084429834752,-425
599616084437521664,-470
599616084445208576,-593
599616084452895488,-378
599616084460582400,-111
599616084468269312,-366
599616084475956224,-808
599616084483643136,-669
599616084491330048,-120
599616084499016960,9
599616084506703872,-250
599616084514390784,-413
599616084522077696,-297
599616084529764608,-16
599616084537451520,-160
599616084545138432,-529
599616084552825344,-276
599616084560512256,141
599616084568199168,-16
599616084575886080,-366
599616084583572992,-371
599616084591259904,-276
599616084598946816,-487
599616084606633728,-484
599616084614320640,106
599616084622007552,257
599616084629694464,-416
599616084637381376,-546
599616084645068288,66
599616084652755200,-52
599616084660442112,-534
599616084668129024,-297
599616084675815936,-127
599616084683502848,-179
599616084691189760,52
599616084698876672,-23
599616084706563584,-541
599616084714250496,-470
599616084721937408,151
599616084729624320,130
599616084737311232,-238
599616084744998144,-68
599616084752685056,179
599616084760371968,40
599616084768058880,-122
599616084775745792,-205
599616084783432704,-262
599616084791119646,-163
599616084798806784,11
599616084806493952,137
599616084814181120,47
599616084821868416,-208
599616084829555584,-250
599616084837242752,-49
599616084844929920,621
599616084852617088,1628
599616084860304256,1439
599616084867991552,-11
599616084875678720,-872
599616084883365888,-609
599616084891053056,-54
599616084898740224,49
599616084906427520,-248
599616084914114688,-177
599616084921801856,184
599616084929489024,198
599616084937176192,122
599616084944863360,425
599616084952550656,411
599616084960237824,-425
599616084967924992,-560
599616084975612160,345
599616084983299328,517
599616084990986624,78
599616084998673792,120
599616085006360960,340
599616085014048128,224
599616085021735296,75
599616085029422592,252
599616085037109760,392
599616085044796928,281
599616085052484096,163
599616085060171264,146
599616085067858432,172
599616085075545728,137
599616085083232896,113
599616085090920064,345
599616085098607232,479
599616085106294400,99
599616085113981696,28
599616085121668864,446
599616085129356032,172
599616085137043200,-222
599616085144730368,238
599616085152417536,494
599616085160104832,151
599616085167792000,59
599616085175479168,288
599616085183166336,437
599616085190853504,267
599616085198540800,42
599616085206227968,104
599616085213915136,170
599616085221602304,193
599616085229289472,248
599616085236976640,75
599616085244663936,42
599616085252351104,314
599616085260038272,226
599616085267725440,-21
599616085275412608,153
599616085283099904,300
599616085290787072,61
599616085298474240,-186
599616085306161408,-125
599616085313848576,40
599616085321535872,-56
599616085329223040,-49
599616085336910208,404
599616085344597376,1153
599616085352284630,1725
599616085359971840,926
599616085367659008,-723
599616085375346176,-1042
599616085383033472,-234
599616085390720640,33
599616085398407808,18
599616085406094976,229
599616085413782144,42
599616085421469312,-177
599616085429156608,78
599616085436843776,189
599616085444530944,-70
599616085452218112,-28
599616085459905280,274
599616085467592576,132
599616085475279744,-61
599616085482966912,56
599616085490654080,200
599616085498341248,321
599616085506028416,219
599616085513715712,-16
599616085521402880,54
599616085529090048,255
599616085536777216,205
599616085544464384,80
599616085552151680,70
599616085559838848,-7
599616085567526016,113
599616085575213184,392
599616085582900352,92
599616085590587648,-243
599616085598274816,118
599616085605961984,326
599616085613649152,-80
599616085621336320,-321
599616085629023488,-115
599616085636710784,52
599616085644397952,167
599616085652085120,151
599616085659772288,-200
599616085667459456,-224
599616085675146752,137
599616085682833920,104
599616085690521088,-196
599616085698208256,-122
599616085705895424,82
599616085713582592,-139
599616085721269888,-191
599616085728957056,184
599616085736644224,26
599616085744331392,-278
599616085752018560,111
599616085759705856,274
599616085767393024,-156
599616085775080192,-286
599616085782767360,-85
599616085790454528,-26
599616085798141696,-115
599616085805828992,-309
599616085813516160,-505
599616085821203328,-498
599616085828890496,200
599616085836577664,1527
599616085844264960,1962
599616085851952128,754
599616085859639296,-569
599616085867326464,-784
599616085875013632,-494
599616085882700928,-385
599616085890388096,-307
599616085898075264,-66
599616085905762432,-35
599616085913449614,-276
599616085921136384,-314
599616085928823168,-250
599616085936509952,-269
599616085944196736,-255
599616085951883520,-222
599616085959570304,-125
599616085967257088,-30
599616085974943744,-11
599616085982630528,14
599616085990317312,-47
599616085998004096,-106
599616086005690880,-78
599616086013377664,-75
599616086021064448,-47
599616086028751232,-47
599616086036438016,-125
599616086044124800,-61
599616086051811584,132
599616086059498368,89
599616086067185024,-160
599616086074871808,-208
599616086082558592,-54
599616086090245376,-23
599616086097932160,-170
599616086105618944,-189
599616086113305728,-35
599616086120992512,-82
599616086128679296,-215
599616086136366080,-118
599616086144052864,-104
599616086151739648,-293
599616086159426304,-267
599616086167113088,-191
599616086174799872,-352
599616086182486656,-335
599616086190173440,-111
599616086197860224,-82
599616086205547008,-184
599616086213233792,-193
599616086220920576,-219
599616086228607360,-260
599616086236294144,-238
599616086243980928,-309
599616086251667584,-508
599616086259354368,-487
599616086267041152,-130
599616086274727936,73
599616086282414720,-139
599616086290101504,-418
599616086297788288,-560
599616086305475072,-898
599616086313161856,-983
599616086320848640,120
599616086328535424,1366
599616086336222208,1170
599616086343908864,245
599616086351595648,-300
599616086359282432,-711
599616086366969216,-869
599616086374656000,-494
599616086382342784,-321
599616086390029568,-680
599616086397716352,-683
599616086405403136,-170
599616086413089920,-94
599616086420776704,-375
599616086428463488,-260
599616086436150144,-153
599616086443836928,-517
599616086451523712,-654
599616086459210496,-312
599616086466897280,-210
599616086474584076,-300
599616086482271232,-262
599616086489958400,-328
599616086497645440,-330
599616086505332608,-352
599616086513019776,-444
599616086520706816,-205
599616086528393984,-80
599616086536081024,-312
599616086543768192,-345
599616086551455360,-387
599616086559142400,-619
599616086566829568,-342
599616086574516736,23
599616086582203776,-416
599616086589890944,-600
599616086597578112,-11
599616086605265152,-87
599616086612952320,-711
599616086620639488,-522
599616086628326528,-7
599616086636013696,-134
599616086643700736,-406
599616086651387904,-378
599616086659075072,-408
599616086666762112,-709
599616086674449280,-581
599616086682136448,165
599616086689823488,122
599616086697510656,-484
599616086705197824,-328
599616086712884864,-127
599616086720572032,-460
599616086728259072,-503
599616086735946240,2
599616086743633408,229
599616086751320448,-172
599616086759007616,-444
599616086766694784,-397
599616086774381824,-451
599616086782068992,-633
599616086789756160,-825
599616086797443200,-697
599616086805130368,54
599616086812817536,1061
599616086820504576,1397
599616086828191744,456
599616086835878784,-926
599616086843565952,-1255
599616086851253120,-657
599616086858940160,-241
599616086866627328,-219
599616086874314496,-238
599616086882001536,-380
599616086889688704,-434
599616086897375872,-217
599616086905062912,-137
599616086912750080,-73
599616086920437120,73
599616086928124288,-59
599616086935811456,-430
599616086943498496,-484
599616086951185664,-198
599616086958872832,-229
599616086966559872,-366
599616086974247040,-2
599616086981934208,274
599616086989621248,7
599616086997308416,-304
599616087004995584,-444
599616087012682624,-446
599616087020369792,-217
599616087028056832,196
599616087035743977,345
599616087043431168,-11
599616087051118336,-236
599616087058805376,-127
599616087066492544,-226
599616087074179712,-267
599616087081866752,28
599616087089553920,92
599616087097240960,-148
599616087104928128,-222
599616087112615296,28
599616087120302336,170
599616087127989504,-61
599616087135676672,-40
599616087143363712,104
599616087151050880,-205
599616087158738048,-312
599616087166425088,26
599616087174112256,184
599616087181799424,-16
599616087189486464,-127
599616087197173632,111
599616087204860672,96
599616087212547840,-101
599616087220235008,30
599616087227922048,101
599616087235609216,11
599616087243296384,85
599616087250983424,61
599616087258670592,-182
599616087266357760,-196
599616087274044800,-297
599616087281731968,-539
599616087289419008,264
599616087297106176,1626
599616087304793344,1591
599616087312480384,356
599616087320167552,-312
599616087327854720,-113
599616087335541760,80
599616087343228928,-108
599616087350916096,-309
599616087358603136,-130
599616087366290304,87
599616087373977472,132
599616087381664512,191
599616087389351680,96
599616087397038720,61
599616087404725888,326
599616087412413056,278
599616087420100096,-144
599616087427787264,9
599616087435474432,562
599616087443161472,366
599616087450848640,-87
599616087458535808,196
599616087466222848,487
599616087473910016,349
599616087481597056,297
599616087489284224,215
599616087496971392,179
599616087504658432,252
599616087512345600,167
599616087520032768,342
599616087527719808,593
599616087535406976,262
599616087543094144,-16
599616087550781184,115
599616087558468352,160
599616087566155392,264
599616087573842560,470
599616087581529728,416
599616087589216768,288
599616087596903874,262
599616087604591104,141
599616087612278272,82
599616087619965312,182
599616087627652480,212
599616087635339648,186
599616087643026688,139
599616087650713856,288
599616087658400896,534
599616087666088064,387
599616087673775232,158
599616087681462272,215
599616087689149440,394
599616087696836608,368
599616087704523648,200
599616087712210816,397
599616087719897984,411
599616087727585024,-94
599616087735272192,-68
599616087742959360,347
599616087750646400,16
599616087758333568,-423
599616087766020608,302
599616087773707776,1423
599616087781394944,1657
599616087789081984,817
599616087796769152,-423
599616087804456320,-881
599616087812143360,-416
599616087819830528,37
599616087827517696,-11
599616087835204736,4
599616087842891904,250
599616087850578944,106
599616087858266112,52
599616087865953280,323
599616087873640320,290
599616087881327488,73
599616087889014656,26
599616087896701696,141
599616087904388864,174
599616087912076032,127
599616087919763072,191
599616087927450240,264
599616087935137408,309
599616087942824448,276
599616087950511616,59
599616087958198656,35
599616087965885824,321
599616087973572992,364
599616087981260032,167
599616087988947200,170
599616087996634368,283
599616088004321408,269
599616088012008576,160
599616088019695744,94
599616088027382784,163
599616088035069952,297
599616088042756992,134
599616088050444160,-146
599616088058131328,-18
599616088065818368,115
599616088073505536,0
599616088081192704,26
599616088088879744,99
599616088096566912,75
599616088104254080,47
599616088111941120,75
599616088119628288,47
599616088127315328,-26
599616088135002496,11
599616088142689664,-92
599616088150376704,-122
599616088158063771,198
599616088165751168,130
599616088173438592,-184
599616088181126016,70
599616088188813312,217
599616088196500736,-224
599616088204188160,-241
599616088211875584,264
599616088219563008,104
599616088227250432,-635
599616088234937728,-567
599616088242625152,408
599616088250312576,1139
599616088258000000,1073
599616088265687424,340
599616088273374720,-524
599616088281062144,-744
599616088288749568,-439
599616088296436992,-177
599616088304124416,-75
599616088311811840,-255
599616088319499136,-238
599616088327186560,229
599616088334873984,68
599616088342561408,-484
599616088350248832,-174
599616088357936128,245
599616088365623552,-7
599616088373310976,-153
599616088380998400,18
599616088388685824,78
599616088396373248,7
599616088404060544,-52
599616088411747968,-37
599616088419435392,104
599616088427122816,316
599616088434810240,349
599616088442497536,52
599616088450184960,-125
599616088457872384,132
599616088465559808,283
599616088473247232,-2
599616088480934656,-182
599616088488621952,18
599616088496309376,189
599616088503996800,139
599616088511684224,-37
599616088519371648,-122
599616088527058944,23
599616088534746368,130
599616088542433792,-68
599616088550121216,-264
599616088557808640,-42
599616088565496064,144
599616088573183360,-87
599616088580870784,-184
599616088588558208,87
599616088596245632,78
599616088603933056,-295
599616088611620352,-234
599616088619307776,94
599616088626995200,11
599616088634682624,-80
599616088642370048,85
599616088650057344,-47
599616088657744768,-271
599616088665432192,-132
599616088673119616,-44
599616088680807040,-111
599616088688494464,-177
599616088696181760,-423
599616088703869184,-657
599616088711556608,-475
599616088719244016,302
599616088726930816,1352
599616088734617600,1565
599616088742304512,390
599616088749991296,-810
599616088757678208,-924
599616088765364992,-647
599616088773051904,-515
599616088780738688,-356
599616088788425600,-236
599616088796112384,-307
599616088803799296,-378
599616088811486080,-345
599616088819172992,-297
599616088826859776,-177
599616088834546560,-101
599616088842233472,-101
599616088849920256,-82
599616088857607168,-113
599616088865293952,-52
599616088872980864,260
599616088880667648,413
599616088888354560,40
599616088896041344,-115
599616088903728256,349
599616088911415040,434
599616088919101952,85
599616088926788736,99
599616088934475520,184
599616088942162432,99
599616088949849216,134
599616088957536128,99
599616088965222912,-63
599616088972909824,115
599616088980596608,593
599616088988283520,635
599616088995970304,229
599616089003657216,148
599616089011344000,229
599616089019030912,130
599616089026717696,130
599616089034404480,189
599616089042091392,219
599616089049778176,278
599616089057465088,401
599616089065151872,669
599616089072838784,867
599616089080525568,919
599616089088212480,1047
599616089095899264,978
599616089103586176,673
599616089111272960,619
599616089118959872,754
599616089126646656,607
599616089134333440,241
599616089142020352,-14
599616089149707136,-137
599616089157394048,-73
599616089165080832,99
599616089172767744,16
599616089180454528,-203
599616089188141440,14
599616089195828224,924
599616089203515136,1784
599616089211201920,1340
599616089218888832,101
599616089226575616,-385
599616089234262400,-392
599616089241949312,-669
599616089249636096,-768
599616089257323008,-635
599616089265009792,-659
599616089272696704,-579
599616089280383565,-304
599616089288070272,-260
599616089295756928,-489
599616089303443712,-659
599616089311130368,-711
599616089318817024,-817
599616089326503808,-933
599616089334190464,-877
599616089341877248,-697
599616089349563904,-579
599616089357250560,-607
599616089364937344,-692
599616089372624000,-780
599616089380310656,-926
599616089387997440,-1002
599616089395684096,-858
599616089403370880,-749
599616089411057536,-884
599616089418744192,-839
599616089426430976,-335
599616089434117632,18
599616089441804288,-257
599616089449491072,-638
599616089457177728,-600
599616089464864512,-546
599616089472551168,-628
599616089480237824,-252
599616089487924608,257
599616089495611264,125
599616089503297920,-203
599616089510984704,-215
599616089518671360,-281
599616089526358144,-626
599616089534044800,-756
599616089541731456,-352
599616089549418240,42
599616089557104896,54
599616089564791552,-127
599616089572478336,-245
599616089580164992,-245
599616089587851776,-333
599616089595538432,-619
599616089603225088,-725
599616089610911872,-224
599616089618598528,262
599616089626285184,40
599616089633971968,-487
599616089641658624,-683
599616089649345408,-463
599616089657032064,-137
599616089664718720,468
599616089672405504,869
599616089680092160,-87
599616089687778816,-1146
599616089695465600,-1141
599616089703152256,-1304
599616089710839040,-1382
599616089718525696,-685
599616089726212352,-460
599616089733899136,-910
599616089741585792,-1153
599616089749272448,-1127
599616089756959232,-687
599616089764645888,-399
599616089772332672,-1042
599616089780019328,-1134
599616089787705984,-260
599616089795392768,-394
599616089803079424,-777
599616089810766080,-85
599616089818452864,-139
599616089826139520,-938
599616089833826304,-498
599616089841512946,70
599616089849200512,-496
599616089856888064,-574
599616089864575616,-7
599616089872263168,-352
599616089879950720,-910
599616089887638272,-326
599616089895325696,120
599616089903013248,-529
599616089910700800,-434
599616089918388352,392
599616089926075904,-68
599616089933763456,-884
599616089941451008,-496
599616089949138560,-23
599616089956826112,-210
599616089964513664,-82
599616089972201088,250
599616089979888640,21
599616089987576192,-215
599616089995263744,-186
599616090002951296,-134
599616090010638848,66
599616090018326400,78
599616090026013952,-80
599616090033701504,219
599616090041389056,245
599616090049076608,-210
599616090056764032,54
599616090064451584,423
599616090072139136,70
599616090079826688,148
599616090087514240,541
599616090095201792,78
599616090102889344,-425
599616090110576896,-245
599616090118264448,-26
599616090125952000,472
599616090133639552,1536
599616090141326976,1888
599616090149014528,898
599616090156702080,-33
599616090164389632,-23
599616090172077184,111
599616090179764736,101
599616090187452288,333
599616090195139840,342
599616090202827392,-18
599616090210514944,42
599616090218202368,319
599616090225889920,132
599616090233577472,-16
599616090241265024,278
599616090248952576,522
599616090256640128,423
599616090264327680,293
599616090272015232,203
599616090279702784,144
599616090287390336,326
599616090295077888,366
599616090302765312,156
599616090310452864,212
599616090318140416,300
599616090325827968,217
599616090333515520,205
599616090341203072,205
599616090348890624,241
599616090356578176,420
599616090364265728,527
599616090371953280,420
599616090379640832,269
599616090387328256,151
599616090395015808,241
599616090402703363,484
599616090410390528,439
599616090418077696,137
599616090425764736,115
599616090433451904,458
599616090441139072,496
599616090448826112,203
599616090456513280,309
599616090464200320,404
599616090471887488,63
599616090479574656,146
599616090487261696,619
599616090494948864,434
599616090502636032,16
599616090510323072,231
599616090518010240,359
599616090525697408,82
599616090533384448,108
599616090541071616,335
599616090548758784,196
599616090556445824,21
599616090564132992,49
599616090571820032,-210
599616090579507200,-368
599616090587194368,290
599616090594881408,1321
599616090602568576,1633
599616090610255744,652
599616090617942784,-498
599616090625629952,-413
599616090633317120,92
599616090641004160,33
599616090648691328,61
599616090656378368,236
599616090664065536,-120
599616090671752704,-127
599616090679439744,345
599616090687126912,33
599616090694814080,-94
599616090702501120,394
599616090710188288,170
599616090717875456,-205
599616090725562496,66
599616090733249664,257
599616090740936832,163
599616090748623872,139
599616090756311040,148
599616090763998080,193
599616090771685248,378
599616090779372416,274
599616090787059456,-174
599616090794746624,-85
599616090802433792,252
599616090810120832,151
599616090817808000,146
599616090825495168,243
599616090833182208,89
599616090840869376,11
599616090848556416,111
599616090856243584,127
599616090863930752,-11
599616090871617792,-23
599616090879304960,170
599616090886992128,42
599616090894679168,-130
599616090902366336,174
599616090910053504,70
599616090917740544,-387
599616090925427712,-82
599616090933114752,319
599616090940801920,63
599616090948489088,-87
599616090956176128,182
599616090963863260,196
599616090971550464,-208
599616090979237632,-269
599616090986924672,-28
599616090994611840,-44
599616091002299008,23
599616091009986048,99
599616091017673216,-63
599616091025360256,92
599616091033047424,-40
599616091040734592,-711
599616091048421632,-288
599616091056108800,950
599616091063795968,1378
599616091071483008,756
599616091079170176,-293
599616091086857344,-813
599616091094544384,-546
599616091102231552,-179
599616091109918720,-44
599616091117605760,30
599616091125292928,-44
599616091132979968,-222
599616091140667136,-99
599616091148354304,75
599616091156041344,54
599616091163728512,94
599616091171415680,42
599616091179102720,-42
599616091186789888,70
599616091194477056,47
599616091202164096,-23
599616091209851264,113
599616091217538304,113
599616091225225472,-7
599616091232912640,113
599616091240599680,224
599616091248286848,151
599616091255974016,130
599616091263661056,118
599616091271348224,99
599616091279035392,35
599616091286722432,2
599616091294409600,198
599616091302096768,144
599616091309783808,-153
599616091317470976,-87
599616091325158016,2
599616091332845184,-151
599616091340532352,-137
599616091348219392,-61
599616091355906560,-186
599616091363593728,-210
599616091371280768,-70
599616091378967936,-160
599616091386655104,-491
599616091394342144,-565
599616091402029312,-78
599616091409716352,356
599616091417403520,127
599616091425090688,-222
599616091432777728,-177
599616091440464896,-96
599616091448152064,-241
599616091455839104,-352
599616091463526272,-418
599616091471213440,-503
599616091478900480,-293
599616091486587648,-35
599616091494274688,-304
599616091501961856,-654
599616091509649024,-94
599616091517336064,1132
599616091525023157,1612
599616091532710144,683
599616091540397184,-576
599616091548084096,-966
599616091555771136,-791
599616091563458048,-659
599616091571145088,-543
599616091578832000,-361
599616091586519040,-200
599616091594205952,-127
599616091601892992,-144
599616091609580032,-328
599616091617266944,-557
599616091624953984,-586
599616091632640896,-446
599616091640327936,-238
599616091648014848,-85
599616091655701888,-115
599616091663388800,-158
599616091671075840,-106
599616091678762752,-73
599616091686449792,-118
599616091694136832,-274
599616091701823744,-250
599616091709510784,18
599616091717197696,4
599616091724884736,-146
599616091732571648,-82
599616091740258688,-151
599616091747945600,-153
599616091755632640,167
599616091763319680,146
599616091771006592,-319
599616091778693632,-520
599616091786380544,-328
599616091794067584,-368
599616091801754496,-553
599616091809441536,-283
599616091817128448,-52
599616091824815488,-160
599616091832502400,-307
599616091840189440,-593
599616091847876480,-517
599616091855563392,-63
599616091863250432,-302
599616091870937344,-827
599616091878624384,-652
599616091886311296,-300
599616091893998336,-352
599616091901685248,-510
599616091909372288,-673
599616091917059328,-787
599616091924746240,-617
599616091932433280,-562
599616091940120192,-600
599616091947807232,-680
599616091955494144,-1595
599616091963181184,-1860
599616091970868096,-113
599616091978555136,1274
599616091986242176,768
599616091993929088,-652
599616092001616128,-1605
599616092009303040,-1550
599616092016990080,-1217
599616092024676992,-1070
599616092032364032,-808
599616092040050944,-576
599616092047737984,-695
599616092055424896,-468
599616092063111936,-44
599616092070798976,-576
599616092078485888,-990
599616092086172884,-442
599616092093860096,-338
599616092101547264,-565
599616092109234432,-196
599616092116921728,111
599616092124608896,-2
599616092132296064,9
599616092139983232,186
599616092147670400,153
599616092155357568,-52
599616092163044864,28
599616092170732032,151
599616092178419200,-411
599616092186106368,-702
599616092193793536,30
599616092201480832,-61
599616092209168000,-926
599616092216855168,-739
599616092224542336,-356
599616092232229504,-300
599616092239916672,-104
599616092247603968,-423
599616092255291136,-624
599616092262978304,-248
599616092270665472,-134
599616092278352640,-200
599616092286039936,-236
599616092293727104,-9
599616092301414272,156
599616092309101440,-94
599616092316788608,-94
599616092324475904,132
599616092332163072,243
599616092339850240,205
599616092347537408,163
599616092355224576,99
599616092362911744,-174
599616092370599040,-174
599616092378286208,61
599616092385973376,-115
599616092393660544,-278
599616092401347712,-271
599616092409035008,-531
599616092416722176,-380
599616092424409344,574
599616092432096512,1316
599616092439783680,1073
599616092447470848,198
599616092455158144,-671
599616092462845312,-1151
599616092470532480,-903
599616092478219648,-333
599616092485906816,-245
599616092493594112,-257
599616092501281280,-108
599616092508968448,-106
599616092516655616,-96
599616092524342784,-111
599616092532029952,-80
599616092539717248,63
599616092547404416,0
599616092555091584,-153
599616092562778752,-208
599616092570465920,-252
599616092578153216,-314
599616092585840384,-513
599616092593527552,-498
599616092601214720,-54
599616092608901888,37
599616092616589184,-413
599616092624276352,-397
599616092631963520,26
599616092639650688,-231
599616092647337868,-550
599616092655025024,-42
599616092662712192,193
599616092670399360,-328
599616092678086656,-385
599616092685773824,75
599616092693460992,-75
599616092701148160,-598
599616092708835328,-491
599616092716522496,-16
599616092724209792,160
599616092731896960,-73
599616092739584128,-468
599616092747271296,-330
599616092754958464,52
599616092762645760,-61
599616092770332928,-255
599616092778020096,-184
599616092785707264,-44
599616092793394432,11
599616092801081600,-122
599616092808768896,-153
599616092816456064,40
599616092824143232,26
599616092831830400,66
599616092839517568,267
599616092847204864,-108
599616092854892032,-690
599616092862579200,-458
599616092870266368,212
599616092877953536,711
599616092885640832,1323
599616092893328000,1375
599616092901015168,87
599616092908702336,-969
599616092916389504,-591
599616092924076672,-14
599616092931763968,191
599616092939451136,484
599616092947138304,174
599616092954825472,-423
599616092962512640,-54
599616092970199936,271
599616092977887104,167
599616092985574272,569
599616092993261440,543
599616093000948608,-127
599616093008635776,26
599616093016323072,754
599616093024010240,739
599616093031697408,300
599616093039384576,196
599616093047071744,243
599616093054759040,387
599616093062446208,704
599616093070133376,647
599616093077820544,300
599616093085507712,453
599616093093194880,723
599616093100882176,498
599616093108569344,354
599616093116256512,536
599616093123943680,248
599616093131630848,-85
599616093139318144,413
599616093147005312,647
599616093154692480,18
599616093162379648,-267
599616093170066816,215
599616093177754112,449
599616093185441280,132
599616093193128448,9
599616093200815616,226
599616093208502852,470
599616093216190080,569
599616093223877248,392
599616093231564288,73
599616093239251456,-44
599616093246938624,125
599616093254625664,283
599616093262312832,125
599616093269999872,-37
599616093277687040,276
599616093285374208,434
599616093293061248,-122
599616093300748416,-494
599616093308435584,-236
599616093316122624,281
599616093323809792,940
599616093331496960,1671
599616093339184000,1567
599616093346871168,144
599616093354558336,-945
599616093362245376,-728
599616093369932544,-193
599616093377619584,9
599616093385306752,-66
599616093392993920,-111
599616093400680960,78
599616093408368128,217
599616093416055296,104
599616093423742336,-49
599616093431429504,-56
599616093439116672,-146
599616093446803712,-179
599616093454490880,156
599616093462177920,177
599616093469865088,-193
599616093477552256,-9
599616093485239296,309
599616093492926464,-30
599616093500613632,-70
599616093508300672,371
599616093515987840,127
599616093523675008,-16
599616093531362048,319
599616093539049216,-9
599616093546736384,-300
599616093554423424,-9
599616093562110592,212
599616093569797632,255
599616093577484800,-11
599616093585171968,-170
599616093592859008,-2
599616093600546176,-212
599616093608233344,-118
599616093615920384,449
599616093623607552,-85
599616093631294720,-742
599616093638981760,28
599616093646668928,536
599616093654355968,-61
599616093662043136,-163
599616093669730304,361
599616093677417344,118
599616093685104512,-496
599616093692791680,-153
599616093700478720,446
599616093708165888,108
599616093715853056,-399
599616093723540096,-137
599616093731227264,222
599616093738914304,33
599616093746601472,-444
599616093754288640,-453
599616093761975680,151
599616093769662749,794
599616093777350016,1394
599616093785037312,1217
599616093792724480,-182
599616093800411776,-1009
599616093808099072,-581
599616093815786368,-208
599616093823473536,-137
599616093831160832,-160
599616093838848128,-215
599616093846535424,151
599616093854222592,408
599616093861909888,-217
599616093869597184,-633
599616093877284352,47
599616093884971648,347
599616093892658944,-399
599616093900346240,-515
599616093908033408,153
599616093915720704,-21
599616093923408000,-404
599616093931095296,257
599616093938782464,612
599616093946469760,-179
599616093954157056,-257
599616093961844224,487
599616093969531520,-160
599616093977218816,-1026
599616093984906112,-245
599616093992593280,148
599616094000280576,-238
599616094007967872,21
599616094015655168,85
599616094023342336,-312
599616094031029632,-338
599616094038716928,-118
599616094046404096,-238
599616094054091392,-638
599616094061778688,-444
599616094069465984,18
599616094077153152,-210
599616094084840448,-513
599616094092527744,-323
599616094100215040,-139
599616094107902208,-196
599616094115589504,-163
599616094123276800,160
599616094130964096,-28
599616094138651264,-716
599616094146338560,-550
599616094154025856,-44
599616094161713024,-200
599616094169400320,-347
599616094177087616,-224
599616094184774912,-347
599616094192462080,-583
599616094200149376,-293
599616094207836672,283
599616094215523968,652
599616094223211136,1040
599616094230898432,657
599616094238585728,-749
599616094246272896,-1146
599616094253960192,-319
599616094261647488,-189
599616094269334784,-477
599616094277021952,-217
599616094284709248,-186
599616094292396544,-487
599616094300083840,-312
599616094307771008,-2
599616094315458304,-106
599616094323145600,-186
599616094330832820,-222
599616094338519936,-380
599616094346207104,-338
599616094353894272,-160
599616094361581568,-47
599616094369268736,9
599616094376955904,-28
599616094384643072,-108
599616094392330240,-139
599616094400017408,-160
599616094407704704,-134
599616094415391872,0
599616094423079040,59
599616094430766208,9
599616094438453376,-54
599616094446140672,-163
599616094453827840,-193
599616094461515008,-111
599616094469202176,-42
599616094476889344,-11
599616094484576512,-44
599616094492263808,-137
599616094499950976,-141
599616094507638144,-75
599616094515325312,-174
599616094523012480,-179
599616094530699776,61
599616094538386944,21
599616094546074112,-87
599616094553761280,87
599616094561448448,115
599616094569135744,106
599616094576822912,184
599616094584510080,21
599616094592197248,-179
599616094599884416,-163
599616094607571584,-21
599616094615258880,96
599616094622946048,-28
599616094630633216,-338
599616094638320384,-446
599616094646007552,148
599616094653694848,1139
599616094661382016,1496
599616094669069184,1092
599616094676756352,309
599616094684443520,-479
599616094692130688,-657
599616094699817984,-146
599616094707505152,217
599616094715192320,16
599616094722879488,-170
599616094730566656,-35
599616094738253952,54
599616094745941120,-33
599616094753628288,-87
599616094761315456,-42
599616094769002624,16
599616094776689792,7
599616094784377088,47
599616094792064256,177
599616094799751424,177
599616094807438592,141
599616094815125760,312
599616094822813056,378
599616094830500224,47
599616094838187392,-203
599616094845874560,-52
599616094853561728,80
599616094861249024,-47
599616094868936192,-42
599616094876623360,-21
599616094884310528,-243
599616094891997804,-61
599616094899684736,442
599616094907371648,340
599616094915058560,68
599616094922745472,101
599616094930432384,-158
599616094938119296,-439
599616094945806208,-505
599616094953493120,-687
599616094961180032,-539
599616094968866944,-267
599616094976553856,-430
599616094984240768,-472
599616094991927680,-399
599616094999614592,-267
599616095007301504,23
599616095014988416,-262
599616095022675328,-650
599616095030362240,-328
599616095038049152,-274
599616095045736064,-718
599616095053422976,-413
599616095061109888,-115
599616095068796800,-1096
599616095076483712,-1607
599616095084170624,-557
599616095091857536,673
599616095099544448,1338
599616095107231360,1054
599616095114918272,28
599616095122605184,-678
599616095130292096,-1052
599616095137979008,-1052
599616095145665920,-451
599616095153352832,-177
599616095161039744,-274
599616095168726656,-229
599616095176413568,-309
599616095184100480,-184
599616095191787392,286
599616095199474304,531
599616095207161216,293
599616095214848128,-186
599616095222535040,-196
599616095230221952,87
599616095237908864,-87
599616095245595776,-465
599616095253282688,-508
599616095260969600,-139
599616095268656512,-63
599616095276343424,-330
599616095284030336,-151
599616095291717248,16
599616095299404160,-184
599616095307091072,-215
599616095314777984,-172
599616095322464896,-217
599616095330151808,-321
599616095337838720,-309
599616095345525632,94
599616095353212544,96
599616095360899456,-371
599616095368586368,-361
599616095376273280,-160
599616095383960192,-49
599616095391647104,101
599616095399334016,-191
599616095407020928,-560
599616095414707840,-92
599616095422394752,198
599616095430081664,-243
599616095437768576,47
599616095445455488,494
599616095453142440,-217
599616095460829824,-510
599616095468517248,380
599616095476204800,446
599616095483892224,-472
599616095491579648,-586
599616095499267200,-226
599616095506954624,-373
599616095514642176,-586
599616095522329600,-189
599616095530017024,1092
599616095537704576,1917
599616095545392000,744
599616095553079424,-905
599616095560766976,-1023
599616095568454400,-496
599616095576141824,-371
599616095583829376,-416
599616095591516800,-345
599616095599204352,198
599616095606891776,565
599616095614579200,345
599616095622266752,203
599616095629954176,205
599616095637641600,276
599616095645329152,416
599616095653016576,222
599616095660704000,217
599616095668391552,713
599616095676078976,846
599616095683766400,742
599616095691453952,817
599616095699141376,799
599616095706828928,695
599616095714516352,562
599616095722203776,501
599616095729891328,822
599616095737578752,1229
599616095745266176,1274
599616095752953728,1276
599616095760641152,1487
599616095768328576,1659
599616095776016128,1591
599616095783703552,1607
599616095791391104,1848
599616095799078528,1685
599616095806765952,1082
599616095814453504,917
599616095822140928,751
599616095829828352,18
599616095837515904,-52
599616095845203328,371
599616095852890752,352
599616095860578304,546
599616095868265728,879
599616095875953280,940
599616095883640704,1037
599616095891328128,959
599616095899015680,817
599616095906703104,919
599616095914390528,943
599616095922078080,654
599616095929765504,416
599616095937452928,513
599616095945140480,378
599616095952827904,-42
599616095960515456,392
599616095968202880,1680
599616095975890304,1820
599616095983577856,137
599616095991265280,-1203
599616095998952704,-732
599616096006640256,-281
599616096014327772,-685
599616096022014976,-349
599616096029702144,99
599616096037389312,-319
599616096045076608,-475
599616096052763776,-260
599616096060450944,-304
599616096068138112,-245
599616096075825280,-156
599616096083512448,-475
599616096091199744,-607
599616096098886912,-307
599616096106574080,-373
599616096114261248,-581
599616096121948416,-236
599616096129635712,-68
599616096137322880,-572
599616096145010048,-817
599616096152697216,-550
599616096160384384,-278
599616096168071552,-94
599616096175758848,-26
599616096183446016,-243
599616096191133184,-602
599616096198820352,-463
599616096206507520,-257
599616096214194816,-650
599616096221881984,-617
599616096229569152,-146
599616096237256320,-494
599616096244943488,-929
599616096252630784,-468
599616096260317952,-255
599616096268005120,-706
599616096275692288,-742
599616096283379456,-465
599616096291066624,-423
599616096298753920,-527
599616096306441088,-607
599616096314128256,-593
599616096321815424,-527
599616096329502592,-609
599616096337189888,-780
599616096344877056,-598
599616096352564224,-352
599616096360251392,-586
599616096367938560,-1014
599616096375625728,-1174
599616096383313024,-1016
599616096391000192,-399
599616096398687360,647
599616096406374528,1078
599616096414061696,-52
599616096421748992,-1375
599616096429436160,-1404
599616096437123328,-1189
599616096444810496,-1208
599616096452497664,-747
599616096460184832,-501
599616096467872128,-735
599616096475559296,-498
599616096483246464,-340
599616096490933632,-817
599616096498620800,-775
599616096506308096,-283
599616096513995264,-267
599616096521682432,-420
599616096529369600,-515
599616096537056768,-595
599616096544744064,-345
599616096552431232,-113
599616096560118400,-345
599616096567805568,-470
599616096575492756,-217
599616096583179904,49
599616096590867072,-78
599616096598554112,-430
599616096606241280,-236
599616096613928448,96
599616096621615488,-137
599616096629302656,-312
599616096636989696,-47
599616096644676864,118
599616096652364032,-59
599616096660051072,-238
599616096667738240,-144
599616096675425408,-52
599616096683112448,-231
599616096690799616,-278
599616096698486784,-111
599616096706173824,-193
599616096713860992,-262
599616096721548160,-66
599616096729235200,-35
599616096736922368,-52
599616096744609408,82
599616096752296576,28
599616096759983744,-252
599616096767670784,-437
599616096775357952,-271
599616096783045120,-14
599616096790732160,-61
599616096798419328,-248
599616096806106496,-399
599616096813793536,-600
599616096821480704,-413
599616096829167744,773
599616096836854912,1806
599616096844542080,976
599616096852229120,-652
599616096859916288,-1137
599616096867603456,-884
599616096875290496,-706
599616096882977664,-302
599616096890664832,-87
599616096898351872,-442
599616096906039040,-413
599616096913726208,-66
599616096921413248,-243
599616096929100416,-529
599616096936787456,-286
599616096944474624,49
599616096952161792,-47
599616096959848832,-153
599616096967536000,170
599616096975223168,309
599616096982910208,-92
599616096990597376,-23
599616096998284544,446
599616097005971584,210
599616097013658752,-118
599616097021345792,2
599616097029032960,33
599616097036720128,-14
599616097044407168,-122
599616097052094336,-101
599616097059781504,153
599616097067468544,78
599616097075155712,-75
599616097082842880,146
599616097090529920,241
599616097098217088,66
599616097105904128,44
599616097113591296,160
599616097121278464,89
599616097128965504,-47
599616097136652653,0
599616097144339840,66
599616097152027008,118
599616097159714048,208
599616097167401216,290
599616097175088384,349
599616097182775424,40
599616097190462592,-411
599616097198149632,-78
599616097205836800,321
599616097213523968,-288
599616097221211008,-345
599616097228898176,593
599616097236585344,345
599616097244272384,-754
599616097251959552,-465
599616097259646720,1186
599616097267333760,2245
599616097275020928,1444
599616097282708096,-238
599616097290395136,-711
599616097298082304,-68
599616097305769344,42
599616097313456512,-92
599616097321143680,7
599616097328830720,-316
599616097336517888,-763
599616097344205056,-437
599616097351892096,193
599616097359579264,85
599616097367266432,-212
599616097374953472,-89
599616097382640640,-286
599616097390327680,-917
599616097398014848,-858
599616097405702016,-212
599616097413389056,-165
599616097421076224,-85
599616097428763392,255
599616097436450432,-33
599616097444137600,-626
599616097451824768,-813
599616097459511808,-231
599616097467198976,269
599616097474886144,-307
599616097482573184,-971
599616097490260352,-520
599616097497947392,26
599616097505634560,-215
599616097513321728,-186
599616097521008768,-172
599616097528695936,-709
599616097536383104,-508
599616097544070144,-177
599616097551757312,-465
599616097559444480,-375
599616097567131520,-449
599616097574818688,-635
599616097582505728,-125
599616097590192896,30
599616097597880064,-482
599616097605567104,-550
599616097613254272,66
599616097620941440,288
599616097628628480,-588
599616097636315648,-938
599616097644002816,56
599616097651689856,28
599616097659377024,-886
599616097667064064,-581
599616097674751232,-262
599616097682438400,-255
599616097690125440,1314
599616097697812550,2576
599616097705499904,1000
599616097713187200,-1011
599616097720874624,-1059
599616097728561920,-498
599616097736249216,-390
599616097743936512,-208
599616097751623936,-252
599616097759311232,-399
599616097766998528,7
599616097774685824,274
599616097782373248,-236
599616097790060544,-609
599616097797747840,-35
599616097805435264,312
599616097813122560,-184
599616097820809856,-427
599616097828497152,-167
599616097836184576,44
599616097843871872,54
599616097851559168,68
599616097859246464,125
599616097866933888,108
599616097874621184,82
599616097882308480,54
599616097889995904,-68
599616097897683200,-18
599616097905370496,236
599616097913057792,122
599616097920745216,-290
599616097928432512,-288
599616097936119808,78
599616097943807104,170
599616097951494528,-14
599616097959181824,-99
599616097966869120,30
599616097974556544,-11
599616097982243840,-193
599616097989931136,-7
599616097997618432,153
599616098005305856,170
599616098012993152,82
599616098020680448,-139
599616098028367744,61
599616098036055168,276
599616098043742464,40
599616098051429760,-89
599616098059117184,75
599616098066804480,248
599616098074491776,219
599616098082179072,35
599616098089866496,-73
599616098097553792,-236
599616098105241088,-278
599616098112928384,330
599616098120615808,1413
599616098128303104,1810
599616098135990400,489
599616098143677824,-962
599616098151365120,-777
599616098159052416,-30
599616098166739712,160
599616098174427136,-7
599616098182114432,-23
599616098189801728,222
599616098197489024,286
599616098205176448,198
599616098212863744,297
599616098220551040,366
599616098228238464,278
599616098235925760,283
599616098243613056,300
599616098251300352,226
599616098258987708,373
599616098266674944,534
599616098274362240,425
599616098282049664,354
599616098289736960,425
599616098297424256,494
599616098305111552,453
599616098312798976,307
599616098320486272,330
599616098328173568,498
599616098335860864,451
599616098343548288,364
599616098351235584,484
599616098358922880,510
599616098366610304,330
599616098374297600,245
599616098381984896,312
599616098389672192,314
599616098397359616,205
599616098405046912,94
599616098412734208,52
599616098420421504,82
599616098428108928,108
599616098435796224,94
599616098443483520,89
599616098451170944,122
599616098458858240,85
599616098466545536,-2
599616098474232832,47
599616098481920256,68
599616098489607552,-134
599616098497294848,-108
599616098504982144,179
599616098512669568,-30
599616098520356864,-567
599616098528044160,-600
599616098535731584,-49
599616098543418880,867
599616098551106176,1548
599616098558793472,1037
599616098566480896,-366
599616098574168192,-1075
599616098581855488,-593
599616098589542784,-137
599616098597230208,-153
599616098604917504,-118
599616098612604800,-33
599616098620292224,-7
599616098627979520,-85
599616098635666816,-248
599616098643354112,-193
599616098651041536,-68
599616098658728832,-44
599616098666416128,-70
599616098674103424,-257
599616098681790848,-200
599616098689478144,174
599616098697165440,80
599616098704852864,-191
599616098712540160,-11
599616098720227456,75
599616098727914752,-118
599616098735602176,-78
599616098743289472,224
599616098750976768,238
599616098758664064,30
599616098766351488,-14
599616098774038784,-49
599616098781726080,-9
599616098789413504,255
599616098797100800,267
599616098804788096,-257
599616098812475392,-444
599616098820162862,61
599616098827849984,182
599616098835537152,-120
599616098843224192,-54
599616098850911360,52
599616098858598528,-87
599616098866285568,-158
599616098873972736,-104
599616098881659776,-21
599616098889346944,56
599616098897034112,122
599616098904721152,226
599616098912408320,23
