599616034336254080,7987
599616034343946368,7806
599616034351638656,7665
599616034359330944,7520
599616034367023360,7351
599616034374715648,7179
599616034382407936,7005
599616034390100224,6848
599616034397792512,6714
599616034405484800,6566
599616034413177216,6400
599616034420869504,6242
599616034428561792,6085
599616034436254080,5932
599616034443946368,5796
599616034451638656,5662
599616034459330944,5507
599616034467023360,5338
599616034474715648,5188
599616034482407936,5064
599616034490100224,4967
599616034497792512,4855
599616034505484800,4655
599616034513177216,4474
599616034520869504,4366
599616034528561792,4237
599616034536254080,4099
599616034543946368,3984
599616034551638656,3850
599616034559330944,3690
599616034567023360,3556
599616034574715648,3434
599616034582407936,3301
599616034590100224,3190
599616034597792512,3103
599616034605484800,2993
599616034613177216,2878
599616034620869504,2772
599616034628561792,2643
599616034636254080,2500
599616034643946368,2380
599616034651638656,2279
599616034659330944,2174
599616034667023360,2066
599616034674715648,1969
599616034682407936,1875
599616034690100224,1753
599616034697792512,1568
599616034705484800,1295
599616034713177216,1131
599616034720869504,1427
599616034728561792,2190
599616034736254080,2753
599616034743946368,2230
599616034751638656,976
599616034759330944,401
599616034767023360,591
599616034774715648,655
599616034782407936,554
599616034790100224,537
599616034797792512,488
599616034805484800,380
599616034813177216,314
599616034820869504,262
599616034828561792,190
599616034836254080,129
599616034843946368,82
599616034851638656,21
599616034859330944,-37
599616034867023360,-91
599616034874715648,-145
599616034882407936,-201
599616034890100234,-246
599616034897788288,-281
599616034905476352,-323
599616034913164288,-368
599616034920852352,-406
599616034928540416,-443
599616034936228480,-483
599616034943916416,-521
599616034951604480,-579
599616034959292544,-643
599616034966980480,-687
599616034974668544,-734
599616034982356608,-798
599616034990044672,-871
599616034997732608,-957
599616035005420672,-1021
599616035013108736,-1040
599616035020796672,-1068
599616035028484736,-1122
599616035036172800,-1169
599616035043860864,-1206
599616035051548800,-1232
599616035059236864,-1230
599616035066924928,-1241
599616035074612864,-1272
599616035082300928,-1293
599616035089988992,-1317
599616035097677056,-1342
599616035105364992,-1352
599616035113053056,-1345
599616035120741120,-1352
599616035128429056,-1375
599616035136117120,-1406
599616035143805184,-1422
599616035151493248,-1427
599616035159181184,-1436
599616035166869248,-1457
599616035174557312,-1481
599616035182245248,-1509
599616035189933312,-1521
599616035197621376,-1521
599616035205309440,-1544
599616035212997376,-1568
599616035220685440,-1582
599616035228373504,-1598
599616035236061568,-1605
599616035243749504,-1610
599616035251437568,-1629
599616035259125632,-1650
599616035266813568,-1666
599616035274501632,-1690
599616035282189696,-1697
599616035289877760,-1688
599616035297565696,-1690
599616035305253760,-1716
599616035312941824,-1735
599616035320629760,-1732
599616035328317824,-1730
599616035336005888,-1742
599616035343693952,-1749
599616035351381888,-1751
599616035359069952,-1774
599616035366758016,-1800
599616035374445952,-1798
599616035382134016,-1803
599616035389822080,-1814
599616035397510144,-1798
599616035405198080,-1772
599616035412886144,-1767
599616035420574208,-1765
599616035428262144,-1763
599616035435950208,-1789
599616035443638272,-1807
599616035451326254,-1800
599616035459014400,-1803
599616035466702592,-1810
599616035474390912,-1798
599616035482079104,-1791
599616035489767296,-1805
599616035497455616,-1854
599616035505143808,-1993
599616035512832000,-2155
599616035520520320,-2040
599616035528208512,-1401
599616035535896704,-537
599616035543585024,-382
599616035551273216,-1396
599616035558961536,-2371
599616035566649728,-2270
599616035574337920,-1943
599616035582026240,-1939
599616035589714432,-1835
599616035597402624,-1732
599616035605090944,-1779
599616035612779136,-1772
599616035620467328,-1730
599616035628155648,-1749
599616035635843840,-1742
599616035643532032,-1727
599616035651220352,-1753
599616035658908544,-1746
599616035666596736,-1704
599616035674285056,-1695
599616035681973248,-1685
599616035689661440,-1662
599616035697349760,-1655
599616035705037952,-1648
599616035712726272,-1636
599616035720414464,-1648
599616035728102656,-1641
599616035735790976,-1608
599616035743479168,-1598
599616035751167360,-1612
599616035758855680,-1631
599616035766543872,-1652
599616035774232064,-1648
599616035781920384,-1645
599616035789608576,-1652
599616035797296768,-1669
599616035804985088,-1742
599616035812673280,-1817
599616035820361472,-1807
599616035828049792,-1777
599616035835737984,-1784
599616035843426176,-1786
599616035851114496,-1784
599616035858802688,-1789
599616035866490880,-1774
599616035874179200,-1765
599616035881867392,-1746
599616035889555712,-1711
599616035897243904,-1725
599616035904932096,-1767
599616035912620416,-1737
599616035920308608,-1690
599616035927996800,-1695
599616035935685120,-1706
599616035943373312,-1713
599616035951061504,-1706
599616035958749824,-1688
599616035966438016,-1685
599616035974126208,-1695
599616035981814528,-1683
599616035989502720,-1666
599616035997190912,-1664
599616036004879232,-1678
599616036012567531,-1704
599616036020255744,-1690
599616036027943936,-1631
599616036035632256,-1612
599616036043320448,-1629
599616036051008640,-1622
599616036058696960,-1617
599616036066385152,-1622
599616036074073344,-1617
599616036081761664,-1619
599616036089449856,-1608
599616036097138048,-1580
599616036104826368,-1584
599616036112514560,-1584
599616036120202880,-1554
599616036127891072,-1542
599616036135579264,-1537
599616036143267584,-1514
599616036150955776,-1509
599616036158643968,-1511
599616036166332288,-1502
599616036174020480,-1497
599616036181708672,-1497
599616036189396992,-1488
599616036197085184,-1467
599616036204773376,-1439
599616036212461696,-1408
599616036220149888,-1371
599616036227838080,-1349
599616036235526400,-1366
599616036243214592,-1378
599616036250902784,-1361
599616036258591104,-1349
599616036266279296,-1349
599616036273967616,-1331
599616036281655808,-1307
599616036289344000,-1300
599616036297032320,-1305
599616036304720512,-1380
599616036312408704,-1565
599616036320097024,-1645
599616036327785216,-1258
599616036335473408,-413
599616036343161728,223
599616036350849920,-248
599616036358538112,-1439
599616036366226432,-1889
599616036373914624,-1610
599616036381602816,-1502
599616036389291136,-1474
599616036396979328,-1366
599616036404667520,-1380
599616036412355840,-1413
599616036420044032,-1368
599616036427732352,-1361
599616036435420544,-1385
599616036443108736,-1375
599616036450797056,-1361
599616036458485248,-1354
599616036466173440,-1331
599616036473861760,-1310
599616036481549952,-1310
599616036489238144,-1293
599616036496926464,-1256
599616036504614656,-1232
599616036512302848,-1234
599616036519991168,-1220
599616036527679360,-1185
599616036535367552,-1162
599616036543055872,-1145
599616036550744064,-1129
599616036558432256,-1133
599616036566120576,-1148
599616036573808812,-1159
599616036581496832,-1152
599616036589184896,-1143
599616036596873088,-1176
599616036604561152,-1220
599616036612249216,-1227
599616036619937280,-1234
599616036627625472,-1251
599616036635313536,-1230
599616036643001600,-1185
599616036650689664,-1169
599616036658377856,-1190
599616036666065920,-1195
599616036673753984,-1155
599616036681442048,-1124
599616036689130240,-1126
599616036696818304,-1124
599616036704506368,-1126
599616036712194432,-1136
599616036719882624,-1124
599616036727570688,-1112
599616036735258752,-1124
599616036742946816,-1136
599616036750635008,-1143
599616036758323072,-1138
599616036766011136,-1112
599616036773699328,-1098
599616036781387392,-1129
599616036789075456,-1136
599616036796763520,-1094
599616036804451712,-1077
599616036812139776,-1082
599616036819827840,-1054
599616036827515904,-1021
599616036835204096,-1037
599616036842892160,-1070
599616036850580224,-1068
599616036858268288,-1042
599616036865956480,-1028
599616036873644544,-1007
599616036881332608,-995
599616036889020672,-1030
599616036896708864,-1054
599616036904396928,-1011
599616036912084992,-993
599616036919773056,-1025
599616036927461248,-1021
599616036935149312,-976
599616036942837376,-950
599616036950525440,-939
599616036958213632,-939
599616036965901696,-971
599616036973589760,-993
599616036981277952,-986
599616036988966016,-976
599616036996654080,-971
599616037004342144,-967
599616037012030336,-969
599616037019718400,-990
599616037027406464,-1035
599616037035094528,-1124
599616037042782720,-1253
599616037050470784,-1150
599616037058158848,-537
599616037065846912,293
599616037073535104,462
599616037081223168,-471
599616037088911232,-1427
599616037096599296,-1408
599616037104287488,-1143
599616037111975552,-1152
599616037119663616,-1047
599616037127351680,-915
599616037135039915,-962
599616037142727808,-976
599616037150415744,-917
599616037158103680,-913
599616037165791744,-929
599616037173479680,-901
599616037181167616,-878
599616037188855552,-880
599616037196543488,-878
599616037204231424,-880
599616037211919488,-882
599616037219607424,-868
599616037227295360,-856
599616037234983296,-849
599616037242671232,-840
599616037250359168,-831
599616037258047232,-809
599616037265735168,-786
599616037273423104,-767
599616037281111040,-741
599616037288798976,-727
599616037296486912,-737
599616037304174976,-746
599616037311862912,-765
599616037319550848,-793
599616037327238784,-812
599616037334926720,-847
599616037342614656,-896
599616037350302720,-925
599616037357990656,-932
599616037365678592,-929
599616037373366528,-943
599616037381054464,-960
599616037388742400,-955
599616037396430464,-946
599616037404118400,-948
599616037411806336,-941
599616037419494272,-932
599616037427182208,-925
599616037434870272,-908
599616037442558208,-894
599616037450246144,-889
599616037457934080,-880
599616037465622016,-871
599616037473309952,-882
599616037480998016,-889
599616037488685952,-871
599616037496373888,-856
599616037504061824,-880
599616037511749760,-899
599616037519437696,-871
599616037527125760,-840
599616037534813696,-845
599616037542501632,-824
599616037550189568,-781
599616037557877504,-812
599616037565565440,-880
599616037573253504,-866
599616037580941440,-849
599616037588629376,-899
599616037596317312,-901
599616037604005248,-859
599616037611693184,-863
599616037619381248,-861
599616037627069184,-849
599616037634757120,-887
599616037642445056,-908
599616037650132992,-896
599616037657821056,-896
599616037665508992,-875
599616037673196928,-854
599616037680884864,-882
599616037688572800,-882
599616037696260848,-826
599616037703949184,-821
599616037711637504,-957
599616037719325952,-1141
599616037727014272,-1030
599616037734702720,-361
599616037742391040,532
599616037750079488,655
599616037757767808,-431
599616037765456256,-1401
599616037773144576,-1260
599616037780832896,-948
599616037788521344,-969
599616037796209664,-838
599616037803898112,-697
599616037811586432,-770
599616037819274880,-788
599616037826963200,-704
599616037834651520,-713
599616037842339968,-788
599616037850028288,-751
599616037857716736,-669
599616037865405056,-694
599616037873093504,-730
599616037880781824,-678
599616037888470272,-643
599616037896158592,-676
599616037903846912,-666
599616037911535360,-596
599616037919223680,-575
599616037926912128,-591
599616037934600448,-570
599616037942288896,-547
599616037949977216,-544
599616037957665536,-535
599616037965353984,-572
599616037973042304,-659
599616037980730752,-694
599616037988419072,-701
599616037996107520,-784
599616038003795840,-899
599616038011484288,-950
599616038019172608,-964
599616038026860928,-990
599616038034549376,-1011
599616038042237696,-1014
599616038049926144,-993
599616038057614464,-971
599616038065302912,-960
599616038072991232,-932
599616038080679552,-896
599616038088368000,-887
599616038096056320,-871
599616038103744768,-852
599616038111433088,-863
599616038119121536,-849
599616038126809856,-831
599616038134498304,-875
599616038142186624,-915
599616038149874944,-910
599616038157563392,-906
599616038165251712,-908
599616038172940160,-908
599616038180628480,-910
599616038188316928,-899
599616038196005248,-878
599616038203693568,-868
599616038211382016,-873
599616038219070336,-868
599616038226758784,-849
599616038234447104,-817
599616038242135552,-791
599616038249823872,-767
599616038257512303,-730
599616038265200384,-716
599616038272888448,-744
599616038280576640,-758
599616038288264704,-723
599616038295952768,-680
599616038303640832,-676
599616038311329024,-676
599616038319017088,-666
599616038326705152,-678
599616038334393216,-690
599616038342081408,-727
599616038349769472,-885
599616038357457536,-979
599616038365145600,-612
599616038372833792,232
599616038380521856,920
599616038388209920,525
599616038395897984,-701
599616038403586176,-1251
599616038411274240,-960
599616038418962304,-838
599616038426650368,-809
599616038434338560,-626
599616038442026624,-608
599616038449714688,-669
599616038457402880,-603
599616038465090944,-577
599616038472779008,-659
599616038480467072,-673
599616038488155264,-608
599616038495843328,-605
599616038503531392,-647
599616038511219456,-643
599616038518907648,-615
599616038526595712,-603
599616038534283776,-596
599616038541971840,-589
599616038549660032,-584
599616038557348096,-547
599616038565036160,-518
599616038572724224,-528
599616038580412416,-511
599616038588100480,-483
599616038595788544,-500
599616038603476608,-528
599616038611164800,-523
599616038618852864,-532
599616038626540928,-565
599616038634229120,-601
599616038641917184,-669
599616038649605248,-727
599616038657293312,-732
599616038664981504,-732
599616038672669568,-730
599616038680357632,-718
599616038688045696,-734
599616038695733888,-746
599616038703421952,-709
599616038711110016,-685
599616038718798080,-697
599616038726486272,-699
599616038734174336,-690
599616038741862400,-685
599616038749550464,-690
599616038757238656,-678
599616038764926720,-640
599616038772614784,-631
599616038780302848,-650
599616038787991040,-619
599616038795679104,-570
599616038803367168,-577
599616038811055360,-608
599616038818743410,-622
599616038826431616,-645
599616038834119808,-650
599616038841808128,-624
599616038849496320,-638
599616038857184512,-678
599616038864872832,-683
599616038872561024,-692
599616038880249216,-699
599616038887937536,-650
599616038895625728,-608
599616038903313920,-610
599616038911002240,-629
599616038918690432,-643
599616038926378752,-633
599616038934066944,-633
599616038941755136,-669
599616038949443456,-678
599616038957131648,-638
599616038964819840,-633
599616038972508160,-671
599616038980196352,-680
599616038987884544,-687
599616038995572864,-793
599616039003261056,-962
599616039010949248,-882
599616039018637568,-279
599616039026325760,608
599616039034013952,892
599616039041702272,-23
599616039049390464,-1115
599616039057078656,-1185
599616039064766976,-882
599616039072455168,-887
599616039080143488,-805
599616039087831680,-640
599616039095519872,-690
599616039103208192,-741
599616039110896384,-633
599616039118584576,-549
599616039126272896,-542
599616039133961088,-530
599616039141649280,-493
599616039149337600,-457
599616039157025792,-436
599616039164713984,-406
599616039172402304,-380
599616039180090496,-387
599616039187778688,-385
599616039195467008,-342
599616039203155200,-309
599616039210843392,-316
599616039218531712,-300
599616039226219904,-241
599616039233908096,-232
599616039241596416,-269
599616039249284608,-260
599616039256972928,-225
599616039264661120,-246
599616039272349312,-300
599616039280037632,-342
599616039287725824,-396
599616039295414016,-488
599616039303102336,-563
599616039310790528,-572
599616039318478720,-586
599616039326167040,-633
599616039333855232,-652
599616039341543424,-645
599616039349231744,-633
599616039356919936,-617
599616039364608128,-633
599616039372296448,-666
599616039379984687,-671
599616039387672576,-640
599616039395360512,-612
599616039403048448,-636
599616039410736512,-680
599616039418424448,-669
599616039426112384,-629
599616039433800320,-636
599616039441488256,-664
599616039449176192,-655
599616039456864256,-622
599616039464552192,-612
599616039472240128,-629
599616039479928064,-636
599616039487616000,-619
599616039495303936,-608
599616039502992000,-626
599616039510679936,-640
599616039518367872,-622
599616039526055808,-593
599616039533743744,-572
599616039541431680,-570
599616039549119744,-589
599616039556807680,-598
599616039564495616,-579
599616039572183552,-570
599616039579871488,-572
599616039587559424,-575
599616039595247488,-589
599616039602935424,-582
599616039610623360,-544
599616039618311296,-537
599616039625999232,-586
599616039633687168,-730
599616039641375232,-927
599616039649063168,-809
599616039656751104,-112
599616039664439040,784
599616039672126976,946
599616039679815040,-75
599616039687502976,-1096
599616039695190912,-1054
599616039702878848,-784
599616039710566784,-800
599616039718254720,-669
599616039725942784,-554
599616039733630720,-638
599616039741318656,-657
599616039749006592,-603
599616039756694528,-615
599616039764382464,-619
599616039772070528,-586
599616039779758464,-589
599616039787446400,-596
599616039795134336,-582
599616039802822272,-575
599616039810510208,-565
599616039818198272,-556
599616039825886208,-549
599616039833574144,-518
599616039841262080,-476
599616039848950016,-467
599616039856637952,-471
599616039864326016,-450
599616039872013952,-429
599616039879701888,-436
599616039887389824,-446
599616039895077760,-443
599616039902765824,-469
599616039910453760,-525
599616039918141696,-582
599616039925829632,-645
599616039933517568,-716
599616039941205620,-777
599616039948893568,-828
599616039956581504,-868
599616039964269440,-878
599616039971957504,-866
599616039979645440,-871
599616039987333376,-896
599616039995021312,-917
599616040002709248,-908
599616040010397184,-896
599616040018085248,-906
599616040025773184,-901
599616040033461120,-882
599616040041149056,-887
599616040048836992,-892
599616040056524928,-875
599616040064212992,-859
599616040071900928,-847
599616040079588864,-845
599616040087276800,-840
599616040094964736,-838
599616040102652672,-849
599616040110340736,-852
599616040118028672,-847
599616040125716608,-852
599616040133404544,-863
599616040141092480,-859
599616040148780416,-852
599616040156468480,-861
599616040164156416,-871
599616040171844352,-866
599616040179532288,-821
599616040187220224,-765
599616040194908160,-744
599616040202596224,-730
599616040210284160,-706
599616040217972096,-706
599616040225660032,-701
599616040233347968,-680
599616040241036032,-669
599616040248723968,-659
599616040256411904,-650
599616040264099840,-643
599616040271787776,-629
599616040279475712,-605
599616040287163776,-615
599616040294851712,-734
599616040302539648,-932
599616040310227584,-882
599616040317915520,-255
599616040325603456,697
599616040333291520,1075
599616040340979456,260
599616040348667392,-831
599616040356355328,-990
599616040364043264,-713
599616040371731200,-685
599616040379419264,-640
599616040387107200,-539
599616040394795136,-575
599616040402483072,-612
599616040410171008,-561
599616040417858944,-525
599616040425547008,-525
599616040433234944,-518
599616040440922880,-497
599616040448610816,-483
599616040456298752,-495
599616040463986816,-495
599616040471674752,-464
599616040479362688,-448
599616040487050624,-450
599616040494738560,-434
599616040502426553,-413
599616040510114432,-389
599616040517802368,-368
599616040525490304,-363
599616040533178368,-359
599616040540866304,-354
599616040548554240,-368
599616040556242176,-396
599616040563930112,-403
599616040571618048,-406
599616040579306112,-460
599616040586994048,-532
599616040594681984,-577
599616040602369920,-608
599616040610057856,-643
599616040617745792,-680
599616040625433856,-687
599616040633121792,-676
599616040640809728,-687
599616040648497664,-694
599616040656185600,-669
599616040663873536,-664
599616040671561600,-669
599616040679249536,-669
599616040686937472,-669
599616040694625408,-659
599616040702313344,-652
599616040710001280,-652
599616040717689344,-647
599616040725377280,-636
599616040733065216,-643
599616040740753152,-652
599616040748441088,-638
599616040756129024,-633
599616040763817088,-643
599616040771505024,-638
599616040779192960,-638
599616040786880896,-645
599616040794568832,-643
599616040802256896,-655
599616040809944832,-662
599616040817632768,-631
599616040825320704,-624
599616040833008640,-640
599616040840696576,-643
599616040848384640,-647
599616040856072576,-659
599616040863760512,-659
599616040871448448,-645
599616040879136384,-619
599616040886824320,-612
599616040894512384,-626
599616040902200320,-612
599616040909888256,-565
599616040917576192,-523
599616040925264128,-420
599616040932952064,-213
599616040940640128,-37
599616040948328064,42
599616040956016000,100
599616040963703936,176
599616040971391872,225
599616040979079808,239
599616040986767872,237
599616040994455808,131
599616041002143744,-51
599616041009831680,53
599616041017519616,718
599616041025207680,1657
599616041032895616,1962
599616041040583552,1002
599616041048271488,-185
599616041055959424,-291
599616041063647486,75
599616041071335552,136
599616041079023616,171
599616041086711552,269
599616041094399616,267
599616041102087680,234
599616041109775744,262
599616041117463680,305
599616041125151744,298
599616041132839808,284
599616041140527744,288
599616041148215808,274
599616041155903872,253
599616041163591936,234
599616041171279872,194
599616041178967936,173
599616041186656000,190
599616041194343936,192
599616041202032000,169
599616041209720064,173
599616041217408128,190
599616041225096064,187
599616041232784128,183
599616041240472192,164
599616041248160128,115
599616041255848192,77
599616041263536256,72
599616041271224320,44
599616041278912256,-30
599616041286600320,-96
599616041294288384,-131
599616041301976320,-161
599616041309664384,-187
599616041317352448,-178
599616041325040512,-136
599616041332728448,-96
599616041340416512,-75
599616041348104576,-58
599616041355792640,-30
599616041363480576,-14
599616041371168640,-21
599616041378856704,-35
599616041386544640,-42
599616041394232704,-42
599616041401920768,-49
599616041409608832,-91
599616041417296768,-178
599616041424984832,-272
599616041432672896,-331
599616041440360832,-417
599616041448048896,-577
599616041455736960,-737
599616041463425024,-856
599616041471112960,-957
599616041478801024,-1042
599616041486489088,-1103
599616041494177024,-1150
599616041501865088,-1195
599616041509553152,-1232
599616041517241216,-1249
599616041524929152,-1256
599616041532617216,-1263
599616041540305280,-1274
599616041547993216,-1279
599616041555681280,-1279
599616041563369344,-1300
599616041571057408,-1331
599616041578745344,-1331
599616041586433408,-1286
599616041594121472,-1227
599616041601809408,-1206
599616041609497472,-1190
599616041617185536,-1152
599616041624873510,-1143
599616041632561536,-1166
599616041640249600,-1173
599616041647937536,-1136
599616041655625600,-1091
599616041663313664,-1072
599616041671001728,-1070
599616041678689664,-1056
599616041686377728,-1042
599616041694065792,-1044
599616041701753728,-1129
599616041709441792,-1303
599616041717129856,-1270
599616041724817920,-706
599616041732505856,223
599616041740193920,758
599616041747881984,86
599616041755569920,-1141
599616041763257984,-1450
599616041770946048,-1082
599616041778634112,-1002
599616041786322048,-1037
599616041794010112,-941
599616041801698176,-922
599616041809386112,-910
599616041817074176,-817
599616041824762240,-795
599616041832450304,-814
599616041840138240,-772
599616041847826304,-751
599616041855514368,-774
599616041863202304,-758
599616041870890368,-706
599616041878578432,-699
599616041886266496,-706
599616041893954432,-664
599616041901642496,-624
599616041909330560,-622
599616041917018496,-615
599616041924706560,-561
599616041932394624,-490
599616041940082688,-493
599616041947770624,-530
599616041955458688,-507
599616041963146752,-495
599616041970834816,-530
599616041978522752,-528
599616041986210816,-542
599616041993898880,-631
599616042001586816,-673
599616042009274880,-652
599616042016962944,-683
599616042024651008,-711
599616042032338944,-692
599616042040027008,-709
599616042047715072,-727
599616042055403008,-699
599616042063091072,-683
599616042070779136,-683
599616042078467200,-678
599616042086155136,-671
599616042093843200,-666
599616042101531264,-633
599616042109219200,-589
599616042116907264,-579
599616042124595328,-596
599616042132283392,-589
599616042139971328,-582
599616042147659392,-584
599616042155347456,-568
599616042163035392,-570
599616042170723456,-586
599616042178411520,-558
599616042186099530,-523
599616042193787648,-547
599616042201475712,-572
599616042209163648,-547
599616042216851712,-535
599616042224539776,-549
599616042232227840,-561
599616042239915776,-577
599616042247603840,-593
599616042255291904,-584
599616042262979840,-565
599616042270667904,-544
599616042278355968,-523
599616042286044032,-518
599616042293731968,-523
599616042301420032,-518
599616042309108096,-514
599616042316796032,-511
599616042324484096,-511
599616042332172160,-516
599616042339860224,-509
599616042347548160,-495
599616042355236224,-504
599616042362924288,-509
599616042370612224,-518
599616042378300288,-662
599616042385988352,-835
599616042393676416,-622
599616042401364352,143
599616042409052416,974
599616042416740480,917
599616042424428416,-251
599616042432116480,-1126
599616042439804544,-915
599616042447492608,-629
599616042455180544,-652
599616042462868608,-554
599616042470556672,-471
599616042478244608,-518
599616042485932672,-511
599616042493620736,-471
599616042501308800,-485
599616042508996736,-495
599616042516684800,-469
599616042524372864,-467
599616042532060928,-469
599616042539748864,-441
599616042547436928,-431
599616042555124992,-448
599616042562812928,-431
599616042570500992,-399
599616042578189056,-399
599616042585877120,-396
599616042593565056,-349
599616042601253120,-300
599616042608941184,-288
599616042616629120,-328
599616042624317184,-380
599616042632005248,-373
599616042639693312,-359
599616042647381248,-382
599616042655069312,-406
599616042662757376,-436
599616042670445312,-504
599616042678133376,-554
599616042685821440,-570
599616042693509504,-584
599616042701197440,-579
599616042708885504,-558
599616042716573568,-591
599616042724261504,-640
599616042731949568,-612
599616042739637632,-572
599616042747325550,-589
599616042755013632,-584
599616042762701696,-542
599616042770389632,-528
599616042778077696,-523
599616042785765760,-507
599616042793453824,-500
599616042801141760,-495
599616042808829824,-474
599616042816517888,-462
599616042824205824,-481
599616042831893888,-493
599616042839581952,-469
599616042847270016,-443
599616042854957952,-443
599616042862646016,-467
599616042870334080,-478
599616042878022016,-464
599616042885710080,-462
599616042893398144,-478
599616042901086208,-469
599616042908774144,-443
599616042916462208,-441
599616042924150272,-476
599616042931838208,-521
599616042939526272,-530
599616042947214336,-488
599616042954902400,-441
599616042962590336,-450
599616042970278400,-481
599616042977966464,-453
599616042985654400,-422
599616042993342464,-450
599616043001030528,-455
599616043008718592,-415
599616043016406528,-427
599616043024094592,-478
599616043031782656,-481
599616043039470592,-460
599616043047158656,-462
599616043054846720,-457
599616043062534784,-500
599616043070222720,-685
599616043077910784,-838
599616043085598848,-554
599616043093286912,262
599616043100974848,1051
599616043108662912,925
599616043116350976,-136
599616043124038912,-880
599616043131726976,-781
599616043139415040,-624
599616043147103104,-643
599616043154791040,-549
599616043162479104,-495
599616043170167168,-565
599616043177855104,-584
599616043185543168,-525
599616043193231232,-497
599616043200919296,-490
599616043208607232,-469
599616043216295296,-467
599616043223983360,-455
599616043231671296,-443
599616043239359360,-490
599616043247047424,-523
599616043254735488,-453
599616043262423424,-396
599616043270111488,-410
599616043277799552,-406
599616043285487488,-382
599616043293175552,-377
599616043300863616,-382
599616043308551570,-403
599616043316239616,-413
599616043323927680,-387
599616043331615872,-387
599616043339303936,-420
599616043346992000,-443
599616043354680064,-471
599616043362368256,-518
599616043370056320,-554
599616043377744384,-572
599616043385432448,-586
599616043393120640,-596
599616043400808704,-596
599616043408496768,-589
599616043416184832,-582
599616043423873024,-563
599616043431561088,-542
599616043439249152,-532
599616043446937216,-521
599616043454625408,-516
599616043462313472,-525
599616043470001536,-525
599616043477689600,-511
599616043485377792,-516
599616043493065856,-511
599616043500753920,-490
599616043508442112,-490
599616043516130176,-500
599616043523818240,-493
599616043531506304,-485
599616043539194496,-495
599616043546882560,-502
599616043554570624,-488
599616043562258688,-474
599616043569946880,-474
599616043577634944,-457
599616043585323008,-460
599616043593011072,-511
599616043600699264,-511
599616043608387328,-453
599616043616075392,-455
599616043623763456,-523
599616043631451648,-582
599616043639139712,-561
599616043646827776,-471
599616043654515840,-413
599616043662204032,-399
599616043669892096,-396
599616043677580160,-415
599616043685268224,-446
599616043692956416,-457
599616043700644480,-448
599616043708332544,-441
599616043716020736,-455
599616043723708800,-455
599616043731396864,-427
599616043739084928,-413
599616043746773120,-429
599616043754461184,-471
599616043762149248,-603
599616043769837312,-741
599616043777525504,-544
599616043785213568,169
599616043792901632,983
599616043800589696,1014
599616043808277888,4
599616043815965952,-852
599616043823654016,-784
599616043831342080,-568
599616043839030272,-584
599616043846718336,-518
599616043854406400,-455
599616043862094464,-502
599616043869782673,-514
599616043877470592,-476
599616043885158528,-464
599616043892846464,-467
599616043900534528,-441
599616043908222464,-420
599616043915910400,-439
599616043923598336,-436
599616043931286272,-392
599616043938974208,-382
599616043946662272,-399
599616043954350208,-370
599616043962038144,-354
599616043969726080,-356
599616043977414016,-323
599616043985101952,-286
599616043992790016,-295
599616044000477952,-302
599616044008165888,-262
599616044015853824,-251
599616044023541760,-314
599616044031229696,-352
599616044038917760,-342
599616044046605696,-375
599616044054293632,-431
599616044061981568,-455
599616044069669504,-464
599616044077357440,-490
599616044085045504,-521
599616044092733440,-523
599616044100421376,-511
599616044108109312,-516
599616044115797248,-523
599616044123485184,-502
599616044131173248,-500
599616044138861184,-518
599616044146549120,-490
599616044154237056,-476
599616044161924992,-500
599616044169613056,-476
599616044177300992,-441
599616044184988928,-495
599616044192676864,-521
599616044200364800,-448
599616044208052736,-417
599616044215740800,-457
599616044223428736,-469
599616044231116672,-446
599616044238804608,-436
599616044246492544,-446
599616044254180480,-450
599616044261868544,-446
599616044269556480,-446
599616044277244416,-457
599616044284932352,-481
599616044292620288,-493
599616044300308224,-488
599616044307996288,-485
599616044315684224,-471
599616044323372160,-436
599616044331060096,-410
599616044338748032,-408
599616044346435968,-403
599616044354124032,-415
599616044361811968,-453
599616044369499904,-453
599616044377187840,-403
599616044384875776,-380
599616044392563840,-413
599616044400251776,-439
599616044407939712,-415
599616044415627648,-408
599616044423315584,-507
599616044431003606,-694
599616044438691968,-730
599616044446380288,-288
599616044454068736,608
599616044461757056,1225
599616044469445504,645
599616044477133824,-596
599616044484822272,-990
599616044492510592,-669
599616044500199040,-579
599616044507887360,-556
599616044515575680,-420
599616044523264128,-431
599616044530952448,-481
599616044538640896,-427
599616044546329216,-410
599616044554017664,-429
599616044561705984,-389
599616044569394304,-352
599616044577082752,-363
599616044584771072,-399
599616044592459520,-403
599616044600147840,-342
599616044607836288,-312
599616044615524608,-399
599616044623213056,-427
599616044630901376,-298
599616044638589696,-215
599616044646278144,-248
599616044653966464,-253
599616044661654912,-225
599616044669343232,-232
599616044677031680,-253
599616044684720000,-258
599616044692408320,-262
599616044700096768,-300
599616044707785088,-368
599616044715473536,-424
599616044723161856,-441
599616044730850304,-450
599616044738538624,-488
599616044746227072,-530
599616044753915392,-549
599616044761603712,-556
599616044769292160,-556
599616044776980480,-544
599616044784668928,-539
599616044792357248,-532
599616044800045696,-514
599616044807734016,-495
599616044815422336,-485
599616044823110784,-500
599616044830799104,-507
599616044838487552,-488
599616044846175872,-469
599616044853864320,-448
599616044861552640,-436
599616044869241088,-457
599616044876929408,-476
599616044884617728,-478
599616044892306176,-485
599616044899994496,-474
599616044907682944,-443
599616044915371264,-441
599616044923059712,-476
599616044930748032,-509
599616044938436352,-514
599616044946124800,-502
599616044953813120,-502
599616044961501568,-518
599616044969189888,-518
599616044976878336,-483
599616044984566656,-415
599616044992255061,-410
599616044999943040,-514
599616045007630976,-551
599616045015318912,-493
599616045023006976,-474
599616045030694912,-462
599616045038382848,-474
599616045046070784,-612
599616045053758720,-612
599616045061446656,-429
599616045069134720,-497
599616045076822656,-781
599616045084510592,-824
599616045092198528,-368
599616045099886464,511
599616045107574400,1169
599616045115262464,699
599616045122950400,-504
599616045130638336,-976
599616045138326272,-692
599616045146014208,-591
599616045153702144,-596
599616045161390208,-460
599616045169078144,-422
599616045176766080,-467
599616045184454016,-439
599616045192141952,-406
599616045199829888,-420
599616045207517952,-427
599616045215205888,-420
599616045222893824,-415
599616045230581760,-387
599616045238269696,-373
599616045245957632,-382
599616045253645696,-377
599616045261333632,-347
599616045269021568,-314
599616045276709504,-328
599616045284397440,-373
599616045292085504,-356
599616045299773440,-298
599616045307461376,-302
599616045315149312,-347
599616045322837248,-333
599616045330525184,-260
599616045338213248,-293
599616045345901184,-450
599616045353589120,-481
599616045361277056,-408
599616045368964992,-448
599616045376652928,-521
599616045384340992,-509
599616045392028928,-493
599616045399716864,-518
599616045407404800,-528
599616045415092736,-476
599616045422780672,-389
599616045430468736,-406
599616045438156672,-537
599616045445844608,-525
599616045453532544,-401
599616045461220480,-478
599616045468908416,-603
599616045476596480,-507
599616045484284416,-401
599616045491972352,-443
599616045499660288,-448
599616045507348224,-370
599616045515036288,-370
599616045522724224,-413
599616045530412160,-403
599616045538100096,-394
599616045545788032,-410
599616045553475994,-413
599616045561164160,-417
599616045568852352,-436
599616045576540544,-429
599616045584228608,-396
599616045591916800,-387
599616045599604992,-392
599616045607293184,-352
599616045614981376,-291
599616045622669440,-267
599616045630357632,-260
599616045638045824,-239
599616045645734016,-255
599616045653422208,-312
599616045661110272,-319
599616045668798464,-279
599616045676486656,-309
599616045684174848,-361
599616045691863040,-295
599616045699551104,-251
599616045707239296,-361
599616045714927488,-514
599616045722615680,-664
599616045730303872,-687
599616045737992064,-277
599616045745680128,565
599616045753368320,1227
599616045761056512,878
599616045768744704,-255
599616045776432896,-849
599616045784120960,-633
599616045791809152,-387
599616045799497344,-361
599616045807185536,-462
599616045814873728,-516
599616045822561792,-347
599616045830249984,-171
599616045837938176,-131
599616045845626368,-84
599616045853314560,-119
599616045861002624,-215
599616045868690816,-72
599616045876379008,112
599616045884067200,-18
599616045891755392,-159
599616045899443456,-39
599616045907131648,79
599616045914819840,82
599616045922508032,150
599616045930196224,164
599616045937884288,-35
599616045945572480,-183
599616045953260672,-82
599616045960948864,37
599616045968637056,-65
599616045976325120,-232
599616045984013312,-208
599616045991701504,-89
599616045999389696,-103
599616046007077888,-269
599616046014765952,-331
599616046022454144,-178
599616046030142336,-244
599616046037830528,-617
599616046045518720,-664
599616046053206912,-389
599616046060894976,-373
599616046068583168,-485
599616046076271360,-431
599616046083959552,-387
599616046091647744,-375
599616046099335808,-309
599616046107024000,-399
599616046114712188,-455
599616046122400384,-246
599616046130088576,-169
599616046137776768,-201
599616046145464832,-129
599616046153153024,-58
599616046160841216,61
599616046168529408,115
599616046176217600,-23
599616046183905664,-9
599616046191593856,218
599616046199282048,213
599616046206970240,44
599616046214658432,63
599616046222346496,126
599616046230034688,82
599616046237722880,129
599616046245411072,208
599616046253099264,32
599616046260787328,-25
599616046268475520,239
599616046276163712,293
599616046283851904,70
599616046291540096,-11
599616046299228288,98
599616046306916352,187
599616046314604544,46
599616046322292736,-79
599616046329980928,204
599616046337669120,366
599616046345357184,51
599616046353045376,-187
599616046360733568,-112
599616046368421760,30
599616046376109952,298
599616046383798016,1206
599616046391486208,1990
599616046399174400,990
599616046406862592,-551
599616046414550784,-457
599616046422238848,124
599616046429927040,-152
599616046437615232,-192
599616046445303424,274
599616046452991616,267
599616046460679680,140
599616046468367872,215
599616046476056064,84
599616046483744256,77
599616046491432448,267
599616046499120512,258
599616046506808704,173
599616046514496896,204
599616046522185088,267
599616046529873280,293
599616046537561344,197
599616046545249536,103
599616046552937728,298
599616046560625920,399
599616046568314112,152
599616046576002176,157
599616046583690368,422
599616046591378560,420
599616046599066752,295
599616046606754944,335
599616046614443008,335
599616046622131200,190
599616046629819392,107
599616046637507584,91
599616046645195776,2
599616046652883968,-42
599616046660572032,46
599616046668260224,7
599616046675948378,-103
599616046683636736,-53
599616046691325056,11
599616046699013376,35
599616046706701696,42
599616046714390016,23
599616046722078208,-4
599616046729766528,-18
599616046737454848,32
599616046745143168,28
599616046752831488,-65
599616046760519808,0
599616046768208128,131
599616046775896448,23
599616046783584768,-107
599616046791273088,-25
599616046798961280,21
599616046806649600,-72
599616046814337920,-77
599616046822026240,-7
599616046829714560,-53
599616046837402880,-166
599616046845091200,-187
599616046852779520,-169
599616046860467840,-143
599616046868156032,-131
599616046875844352,-251
599616046883532672,-288
599616046891220992,-105
599616046898909312,-89
599616046906597632,-230
599616046914285952,-265
599616046921974272,-255
599616046929662592,-260
599616046937350784,-272
599616046945039104,-312
599616046952727424,-427
599616046960415744,-478
599616046968104064,-389
599616046975792384,-471
599616046983480704,-791
599616046991169024,-903
599616046998857344,-488
599616047006545664,443
599616047014233856,1317
599616047021922176,1098
599616047029610496,-124
599616047037298816,-920
599616047044987136,-793
599616047052675456,-650
599616047060363776,-739
599616047068052096,-608
599616047075740416,-448
599616047083428608,-532
599616047091116928,-612
599616047098805248,-563
599616047106493568,-530
599616047114181888,-535
599616047121870208,-542
599616047129558528,-544
599616047137246848,-530
599616047144935168,-532
599616047152623488,-525
599616047160311680,-455
599616047168000000,-366
599616047175688320,-396
599616047183376640,-483
599616047191064960,-446
599616047198753280,-366
599616047206441600,-377
599616047214129920,-408
599616047221818240,-401
599616047229506432,-363
599616047237194746,-333
599616047244882816,-361
599616047252570880,-408
599616047260258816,-387
599616047267946880,-375
599616047275634944,-476
599616047283323008,-528
599616047291010944,-471
599616047298699008,-521
599616047306387072,-596
599616047314075008,-523
599616047321763072,-495
599616047329451136,-549
599616047337139200,-467
599616047344827136,-335
599616047352515200,-342
599616047360203264,-406
599616047367891200,-408
599616047375579264,-363
599616047383267328,-331
599616047390955392,-323
599616047398643328,-342
599616047406331392,-377
599616047414019456,-335
599616047421707392,-237
599616047429395456,-225
599616047437083520,-284
599616047444771584,-319
599616047452459520,-309
599616047460147584,-291
599616047467835648,-300
599616047475523584,-298
599616047483211648,-298
599616047490899712,-272
599616047498587776,-218
599616047506275712,-230
599616047513963776,-211
599616047521651840,-152
599616047529339776,-173
599616047537027840,-169
599616047544715904,-173
599616047552403968,-342
599616047560091904,-446
599616047567779968,-338
599616047575468032,-274
599616047583155968,-288
599616047590844032,-302
599616047598532096,-535
599616047606220160,-748
599616047613908096,-298
599616047621596160,760
599616047629284224,1662
599616047636972288,1457
599616047644660224,131
599616047652348288,-713
599616047660036352,-417
599616047667724288,-157
599616047675412352,-147
599616047683100416,119
599616047690788480,260
599616047698476416,133
599616047706164480,204
599616047713852544,305
599616047721540480,176
599616047729228544,150
599616047736916608,211
599616047744604672,187
599616047752292608,326
599616047759980672,464
599616047767668736,326
599616047775356672,269
599616047783044736,474
599616047790732800,631
599616047798420762,650
599616047806109184,744
599616047813797632,925
599616047821486080,969
599616047829174528,889
599616047836862976,866
599616047844551424,828
599616047852239872,777
599616047859928320,878
599616047867616768,875
599616047875305216,655
599616047882993664,570
599616047890682112,561
599616047898370560,427
599616047906059008,328
599616047913747456,319
599616047921435904,284
599616047929124352,244
599616047936812800,190
599616047944501248,96
599616047952189696,124
599616047959878144,192
599616047967566592,110
599616047975255040,28
599616047982943488,-21
599616047990631936,-49
599616047998320384,-28
599616048006008832,-49
599616048013697280,-86
599616048021385728,-138
599616048029074048,-192
599616048036762496,-96
599616048044450944,-23
599616048052139392,-115
599616048059827840,-145
599616048067516288,-131
599616048075204736,-227
599616048082893184,-272
599616048090581632,-183
599616048098270080,-161
599616048105958528,-187
599616048113646976,-173
599616048121335424,-220
599616048129023872,-251
599616048136712320,-211
599616048144400768,-258
599616048152089216,-342
599616048159777664,-347
599616048167466112,-340
599616048175154560,-363
599616048182843008,-394
599616048190531456,-443
599616048198219904,-643
599616048205908352,-1018
599616048213596800,-1040
599616048221285248,-248
599616048228973696,821
599616048236662144,1054
599616048244350592,-32
599616048252039040,-1277
599616048259727488,-1481
599616048267415936,-1303
599616048275104384,-1401
599616048282792832,-1455
599616048290481280,-1460
599616048298169728,-1537
599616048305858176,-1563
599616048313546624,-1587
599616048321235072,-1673
599616048328923520,-1720
599616048336611968,-1727
599616048344300416,-1765
599616048351988864,-1760
599616048359677304,-1676
599616048367365632,-1624
599616048375053952,-1629
599616048382742272,-1582
599616048390430592,-1479
599616048398118912,-1408
599616048405807104,-1359
599616048413495424,-1284
599616048421183744,-1206
599616048428872064,-1150
599616048436560384,-1084
599616048444248704,-995
599616048451937024,-913
599616048459625344,-840
599616048467313664,-725
599616048475001984,-593
599616048482690176,-504
599616048490378496,-429
599616048498066816,-349
599616048505755136,-291
599616048513443456,-262
599616048521131776,-262
599616048528820096,-267
599616048536508416,-260
599616048544196736,-262
599616048551884928,-302
599616048559573248,-387
599616048567261568,-490
599616048574949888,-605
599616048582638208,-767
599616048590326528,-934
599616048598014848,-1063
599616048605703168,-1185
599616048613391488,-1333
599616048621079680,-1467
599616048628768000,-1547
599616048636456320,-1697
599616048644144640,-1918
599616048651832960,-1969
599616048659521280,-1911
599616048667209600,-1897
599616048674897920,-1880
599616048682586240,-1810
599616048690274560,-1688
599616048697962752,-1596
599616048705651072,-1528
599616048713339392,-1385
599616048721027712,-1265
599616048728716032,-1260
599616048736404352,-1263
599616048744092672,-1230
599616048751780992,-1209
599616048759469312,-1204
599616048767157504,-1213
599616048774845824,-1246
599616048782534144,-1284
599616048790222464,-1373
599616048797910784,-1610
599616048805599104,-1908
599616048813287424,-1929
599616048820975744,-1371
599616048828664064,-436
599616048836352256,30
599616048844040576,-685
599616048851728896,-1758
599616048859417216,-1908
599616048867105536,-1540
599616048874793856,-1415
599616048882482176,-1354
599616048890170496,-1260
599616048897858816,-1279
599616048905547136,-1312
599616048913235328,-1239
599616048920923668,-1159
599616048928611840,-1164
599616048936300032,-1211
599616048943988224,-1260
599616048951676288,-1284
599616048959364480,-1234
599616048967052672,-1108
599616048974740864,-941
599616048982429056,-819
599616048990117120,-793
599616048997805312,-805
599616049005493504,-798
599616049013181696,-814
599616049020869888,-903
599616049028557952,-953
599616049036246144,-894
599616049043934336,-856
599616049051622528,-868
599616049059310720,-868
599616049066998784,-901
599616049074686976,-993
599616049082375168,-1065
599616049090063360,-1072
599616049097751552,-1007
599616049105439744,-908
599616049113127808,-894
599616049120816000,-957
599616049128504192,-957
599616049136192384,-929
599616049143880576,-950
599616049151568640,-946
599616049159256832,-903
599616049166945024,-901
599616049174633216,-908
599616049182321408,-887
599616049190009472,-878
599616049197697664,-878
599616049205385856,-856
599616049213074048,-826
599616049220762240,-809
599616049228450304,-798
599616049236138496,-774
599616049243826688,-777
599616049251514880,-798
599616049259203072,-807
599616049266891136,-817
599616049274579328,-812
599616049282267520,-802
599616049289955712,-795
599616049297643904,-805
599616049305331968,-828
599616049313020160,-809
599616049320708352,-755
599616049328396544,-659
599616049336084736,-570
599616049343772800,-683
599616049351460992,-957
599616049359149184,-1072
599616049366837376,-1021
599616049374525568,-1058
599616049382213632,-1079
599616049389901824,-1004
599616049397590016,-1101
599616049405278208,-1284
599616049412966400,-1049
599616049420654592,-180
599616049428342656,908
599616049436030848,1260
599616049443719040,370
599616049451407232,-624
599616049459095424,-664
599616049466783488,-443
599616049474471680,-483
599616049482159862,-474
599616049489847936,-455
599616049497536000,-539
599616049505223936,-596
599616049512912000,-617
599616049520600064,-598
599616049528288128,-490
599616049535976064,-413
599616049543664128,-420
599616049551352192,-422
599616049559040128,-420
599616049566728192,-464
599616049574416256,-516
599616049582104320,-549
599616049589792256,-570
599616049597480320,-586
599616049605168384,-605
599616049612856320,-605
599616049620544384,-589
599616049628232448,-589
599616049635920512,-610
599616049643608448,-617
599616049651296512,-610
599616049658984576,-610
599616049666672512,-626
599616049674360576,-643
599616049682048640,-647
599616049689736704,-643
599616049697424640,-671
599616049705112704,-727
599616049712800768,-739
599616049720488704,-683
599616049728176768,-622
599616049735864832,-572
599616049743552896,-504
599616049751240832,-464
599616049758928896,-476
599616049766616960,-502
599616049774304896,-556
599616049781992960,-565
599616049789681024,-467
599616049797369088,-375
599616049805057024,-380
599616049812745088,-413
599616049820433152,-450
599616049828121216,-518
599616049835809152,-558
599616049843497216,-525
599616049851185280,-500
599616049858873216,-497
599616049866561280,-469
599616049874249344,-434
599616049881937408,-422
599616049889625344,-415
599616049897313408,-389
599616049905001472,-349
599616049912689408,-335
599616049920377472,-370
599616049928065536,-417
599616049935753600,-448
599616049943441536,-471
599616049951129600,-478
599616049958817664,-462
599616049966505600,-434
599616049974193664,-427
599616049981881728,-413
599616049989569792,-356
599616049997257728,-352
599616050004945792,-511
599616050012633856,-711
599616050020321792,-565
599616050028009856,131
599616050035697920,953
599616050043385882,925
599616050051073920,-178
599616050058761984,-1011
599616050066450176,-868
599616050074138240,-666
599616050081826304,-734
599616050089514368,-687
599616050097202560,-640
599616050104890624,-709
599616050112578688,-748
599616050120266752,-765
599616050127954944,-809
599616050135643008,-852
599616050143331072,-882
599616050151019136,-901
599616050158707328,-894
599616050166395392,-878
599616050174083456,-913
599616050181771520,-974
599616050189459712,-967
599616050197147776,-920
599616050204835840,-913
599616050212523904,-910
599616050220212096,-875
599616050227900160,-847
599616050235588224,-847
599616050243276416,-831
599616050250964480,-800
599616050258652544,-805
599616050266340608,-828
599616050274028800,-863
599616050281716864,-913
599616050289404928,-953
599616050297092992,-1011
599616050304781184,-1101
599616050312469248,-1162
599616050320157312,-1223
599616050327845376,-1359
599616050335533568,-1540
599616050343221632,-1657
599616050350909696,-1685
599616050358597760,-1742
599616050366285952,-1866
599616050373974016,-1918
599616050381662080,-1871
599616050389350144,-1847
599616050397038336,-1887
599616050404726400,-1906
599616050412414464,-1847
599616050420102528,-1800
599616050427790720,-1854
599616050435478784,-1885
599616050443166848,-1796
599616050450855040,-1732
599616050458543104,-1774
599616050466231168,-1765
599616050473919232,-1676
599616050481607424,-1641
599616050489295488,-1627
599616050496983552,-1580
599616050504671616,-1554
599616050512359808,-1561
599616050520047872,-1603
599616050527735936,-1627
599616050535424000,-1577
599616050543112192,-1516
599616050550800256,-1523
599616050558488320,-1521
599616050566176384,-1448
599616050573864576,-1387
599616050581552640,-1378
599616050589240704,-1411
599616050596928768,-1537
599616050604616985,-1631
599616050612305280,-1305
599616050619993600,-408
599616050627682048,415
599616050635370368,53
599616050643058816,-1284
599616050650747136,-1859
599616050658435584,-1446
599616050666123904,-1220
599616050673812352,-1159
599616050681500672,-962
599616050689188992,-934
599616050696877440,-979
599616050704565760,-908
599616050712254208,-901
599616050719942528,-962
599616050727630976,-917
599616050735319296,-842
599616050743007616,-840
599616050750696064,-819
599616050758384384,-760
599616050766072832,-758
599616050773761152,-760
599616050781449600,-690
599616050789137920,-636
599616050796826368,-647
599616050804514688,-624
599616050812203008,-563
599616050819891456,-575
599616050827579776,-610
599616050835268224,-563
599616050842956544,-537
599616050850644992,-589
599616050858333312,-610
599616050866021632,-586
599616050873710080,-612
599616050881398400,-673
599616050889086848,-697
599616050896775168,-716
599616050904463616,-765
599616050912151936,-788
599616050919840384,-786
599616050927528704,-817
599616050935217024,-835
599616050942905472,-805
599616050950593792,-748
599616050958282240,-720
599616050965970560,-713
599616050973659008,-680
599616050981347328,-636
599616050989035648,-598
599616050996724096,-572
599616051004412416,-568
599616051012100864,-565
599616051019789184,-537
599616051027477632,-516
599616051035165952,-521
599616051042854400,-551
599616051050542720,-591
599616051058231040,-572
599616051065919488,-509
599616051073607808,-495
599616051081296256,-511
599616051088984576,-516
599616051096673024,-514
599616051104361344,-525
599616051112049664,-575
599616051119738112,-591
599616051127426432,-535
599616051135114880,-483
599616051142803200,-516
599616051150491648,-561
599616051158179968,-551
599616051165868440,-551
599616051173556352,-662
599616051181244288,-882
599616051188932224,-943
599616051196620288,-483
599616051204308224,439
599616051211996160,1075
599616051219684096,532
599616051227372032,-605
599616051235059968,-831
599616051242748032,-382
599616051250435968,-215
599616051258123904,-96
599616051265811840,136
599616051273499776,211
599616051281187712,237
599616051288875776,326
599616051296563712,408
599616051304251648,483
599616051311939584,579
599616051319627520,659
599616051327315456,720
599616051335003520,795
599616051342691456,852
599616051350379392,859
599616051358067328,880
599616051365755264,929
599616051373443200,957
599616051381131264,962
599616051388819200,967
599616051396507136,953
599616051404195072,899
599616051411883008,819
599616051419570944,730
599616051427259008,638
599616051434946944,539
599616051442634880,441
599616051450322816,380
599616051458010752,335
599616051465698816,267
599616051473386752,192
599616051481074688,143
599616051488762624,122
599616051496450560,112
599616051504138496,91
599616051511826560,53
599616051519514496,23
599616051527202432,9
599616051534890368,-4
599616051542578304,-21
599616051550266240,-32
599616051557954304,-35
599616051565642240,-30
599616051573330176,-37
599616051581018112,-61
599616051588706048,-65
599616051596393984,-42
599616051604082048,-39
599616051611769984,-56
599616051619457920,-46
599616051627145856,-16
599616051634833792,-46
599616051642521728,-147
599616051650209792,-206
599616051657897728,-204
599616051665585664,-215
599616051673273600,-204
599616051680961536,-169
599616051688649600,-173
599616051696337536,-185
599616051704025472,-178
599616051711713408,-194
599616051719401344,-208
599616051727089373,-192
599616051734777344,-197
599616051742465280,-206
599616051750153216,-164
599616051757841280,-122
599616051765529216,-143
599616051773217152,-281
599616051780905088,-450
599616051788593024,-302
599616051796280960,377
599616051803969024,1195
599616051811656960,1277
599616051819344896,321
599616051827032832,-589
599616051834720768,-608
599616051842408704,-396
599616051850096768,-392
599616051857784704,-307
599616051865472640,-241
599616051873160576,-288
599616051880848512,-281
599616051888536448,-260
599616051896224512,-326
599616051903912448,-385
599616051911600384,-406
599616051919288320,-460
599616051926976256,-530
599616051934664192,-554
599616051942352256,-561
599616051950040192,-572
599616051957728128,-568
599616051965416064,-532
599616051973104000,-511
599616051980791936,-514
599616051988480000,-502
599616051996167936,-471
599616052003855872,-439
599616052011543808,-424
599616052019231744,-443
599616052026919808,-453
599616052034607744,-441
599616052042295680,-446
599616052049983616,-488
599616052057671552,-561
599616052065359488,-659
599616052073047552,-772
599616052080735488,-861
599616052088423424,-845
599616052096111360,-746
599616052103799296,-659
599616052111487232,-579
599616052119175296,-467
599616052126863232,-392
599616052134551168,-375
599616052142239104,-319
599616052149927040,-232
599616052157614976,-197
599616052165303040,-178
599616052172990976,-126
599616052180678912,-100
599616052188366848,-145
599616052196054784,-166
599616052203742720,-100
599616052211430784,-51
599616052219118720,-39
599616052226806656,-4
599616052234494592,23
599616052242182528,21
599616052249870592,37
599616052257558528,77
599616052265246464,98
599616052272934400,91
599616052280622336,82
599616052288310306,46
599616052295998464,-49
599616052303686656,-173
599616052311374848,-255
599616052319062912,-305
599616052326751104,-354
599616052334439296,-373
599616052342127488,-375
599616052349815680,-422
599616052357503744,-532
599616052365191936,-716
599616052372880128,-990
599616052380568320,-1195
599616052388256512,-983
599616052395944576,-237
599616052403632768,518
599616052411320960,331
599616052419009152,-774
599616052426697344,-1450
599616052434385408,-1246
599616052442073600,-1047
599616052449761792,-1072
599616052457449984,-1025
599616052465138176,-974
599616052472826368,-967
599616052480514432,-925
599616052488202624,-878
599616052495890816,-863
599616052503579008,-859
599616052511267200,-847
599616052518955264,-809
599616052526643456,-772
599616052534331648,-812
599616052542019840,-882
599616052549708032,-861
599616052557396096,-805
599616052565084288,-795
599616052572772480,-777
599616052580460672,-732
599616052588148864,-716
599616052595836928,-730
599616052603525120,-737
599616052611213312,-718
599616052618901504,-673
599616052626589696,-643
599616052634277760,-643
599616052641965952,-640
599616052649654144,-640
599616052657342336,-655
599616052665030528,-683
599616052672718592,-730
599616052680406784,-753
599616052688094976,-720
599616052695783168,-669
599616052703471360,-650
599616052711159424,-659
599616052718847616,-673
599616052726535808,-676
599616052734224000,-687
599616052741912192,-704
599616052749600256,-692
599616052757288448,-664
599616052764976640,-680
599616052772664832,-683
599616052780353024,-603
599616052788041216,-589
599616052795729280,-659
599616052803417472,-669
599616052811105664,-645
599616052818793856,-669
599616052826482048,-687
599616052834170112,-676
599616052841858304,-676
599616052849546500,-671
599616052857234560,-645
599616052864922624,-638
599616052872610560,-647
599616052880298624,-645
599616052887986688,-659
599616052895674752,-699
599616052903362688,-718
599616052911050752,-706
599616052918738816,-692
599616052926426752,-718
599616052934114816,-755
599616052941802880,-751
599616052949490944,-734
599616052957178880,-781
599616052964866944,-946
599616052972555008,-1150
599616052980242944,-1044
599616052987931008,-338
599616052995619072,598
599616053003307136,737
599616053010995072,-300
599616053018683136,-1223
599616053026371200,-1136
599616053034059136,-899
599616053041747200,-908
599616053049435264,-779
599616053057123328,-678
599616053064811264,-746
599616053072499328,-777
599616053080187392,-770
599616053087875328,-805
599616053095563392,-819
599616053103251456,-795
599616053110939520,-763
599616053118627456,-741
599616053126315520,-706
599616053134003584,-617
599616053141691520,-539
599616053149379584,-521
599616053157067648,-488
599616053164755712,-415
599616053172443648,-370
599616053180131712,-352
599616053187819776,-316
599616053195507840,-295
599616053203195776,-305
599616053210883840,-312
599616053218571904,-338
599616053226259840,-399
599616053233947904,-439
599616053241635968,-467
599616053249324032,-530
599616053257011968,-605
599616053264700032,-662
599616053272388096,-709
599616053280076032,-739
599616053287764096,-765
599616053295452160,-798
599616053303140224,-814
599616053310828160,-812
599616053318516224,-812
599616053326204288,-793
599616053333892224,-765
599616053341580288,-751
599616053349268352,-734
599616053356956416,-680
599616053364644352,-617
599616053372332416,-643
599616053380020480,-706
599616053387708416,-645
599616053395396480,-558
599616053403084544,-577
599616053410772520,-601
599616053418460544,-570
599616053426148608,-547
599616053433836800,-539
599616053441524864,-530
599616053449212928,-528
599616053456900992,-523
599616053464589184,-481
599616053472277248,-410
599616053479965312,-399
599616053487653376,-481
599616053495341568,-551
599616053503029632,-542
599616053510717696,-525
599616053518405760,-547
599616053526093952,-535
599616053533782016,-481
599616053541470080,-462
599616053549158144,-436
599616053556846336,-481
599616053564534400,-694
599616053572222464,-737
599616053579910528,-201
599616053587598720,739
599616053595286784,1291
599616053602974848,680
599616053610663040,-464
599616053618351104,-842
599616053626039168,-636
599616053633727232,-577
599616053641415424,-537
599616053649103488,-439
599616053656791552,-424
599616053664479616,-396
599616053672167808,-309
599616053679855872,-272
599616053687543936,-269
599616053695232000,-248
599616053702920192,-227
599616053710608256,-223
599616053718296320,-237
599616053725984384,-258
599616053733672576,-255
599616053741360640,-225
599616053749048704,-197
599616053756736768,-187
599616053764424960,-185
599616053772113024,-183
599616053779801088,-183
599616053787489152,-187
599616053795177344,-201
599616053802865408,-220
599616053810553472,-255
599616053818241664,-312
599616053825929728,-356
599616053833617792,-392
599616053841305856,-424
599616053848994048,-436
599616053856682112,-478
599616053864370176,-535
599616053872058240,-511
599616053879746432,-469
599616053887434496,-476
599616053895122560,-450
599616053902810624,-399
599616053910498816,-359
599616053918186880,-267
599616053925874944,-199
599616053933563008,-194
599616053941251200,-147
599616053948939264,-91
599616053956627328,-96
599616053964315392,-115
599616053972003623,-122
599616053979691520,-150
599616053987379456,-166
599616053995067392,-159
599616054002755456,-166
599616054010443392,-201
599616054018131328,-215
599616054025819264,-215
599616054033507200,-234
599616054041195136,-239
599616054048883200,-206
599616054056571136,-190
599616054064259072,-176
599616054071947008,-150
599616054079634944,-204
599616054087322880,-260
599616054095010944,-173
599616054102698880,-82
599616054110386816,-86
599616054118074752,-51
599616054125762688,30
599616054133450624,35
599616054141138688,-16
599616054148826624,-25
599616054156514560,-68
599616054164202496,-176
599616054171890432,-68
599616054179578368,596
599616054187266432,1540
599616054194954368,1753
599616054202642304,842
599616054210330240,14
599616054218018176,79
599616054225706112,302
599616054233394176,333
599616054241082112,448
599616054248770048,514
599616054256457984,464
599616054264145920,436
599616054271833984,429
599616054279521920,424
599616054287209856,408
599616054294897792,349
599616054302585728,293
599616054310273664,298
599616054317961728,321
599616054325649664,321
599616054333337600,323
599616054341025536,255
599616054348713472,166
599616054356401408,227
599616054364089472,258
599616054371777408,171
599616054379465344,211
599616054387153280,258
599616054394841216,138
599616054402529152,105
599616054410217216,232
599616054417905152,237
599616054425593088,86
599616054433281024,96
599616054440968960,225
599616054448656896,140
599616054456344960,23
599616054464032896,96
599616054471720832,86
599616054479408768,-16
599616054487096704,68
599616054494784768,154
599616054502472704,77
599616054510160640,49
599616054517848576,115
599616054525536512,133
599616054533224556,105
599616054540912640,126
599616054548600704,190
599616054556288640,206
599616054563976704,152
599616054571664768,126
599616054579352832,201
599616054587040768,206
599616054594728832,46
599616054602416896,-53
599616054610104832,-25
599616054617792896,-18
599616054625480960,-58
599616054633169024,-68
599616054640856960,18
599616054648545024,103
599616054656233088,131
599616054663921024,145
599616054671609088,122
599616054679297152,131
599616054686985216,206
599616054694673152,248
599616054702361216,244
599616054710049280,244
599616054717737216,277
599616054725425280,342
599616054733113344,345
599616054740801408,204
599616054748489344,-18
599616054756177408,-82
599616054763865472,368
599616054771553408,1324
599616054779241472,1934
599616054786929536,1223
599616054794617600,-159
599616054802305536,-655
599616054809993600,-420
599616054817681664,-375
599616054825369728,-387
599616054833057664,-305
599616054840745728,-394
599616054848433792,-518
599616054856121728,-493
599616054863809792,-525
599616054871497856,-629
599616054879185920,-629
599616054886873856,-617
599616054894561920,-659
599616054902249984,-650
599616054909937920,-629
599616054917625984,-673
599616054925314048,-629
599616054933002112,-535
599616054940690048,-575
599616054948378112,-608
599616054956066176,-539
599616054963754112,-558
599616054971442176,-636
599616054979130240,-612
599616054986818304,-544
599616054994506240,-530
599616055002194304,-551
599616055009882368,-539
599616055017570304,-469
599616055025258368,-450
599616055032946432,-493
599616055040634496,-464
599616055048322432,-417
599616055056010496,-453
599616055063698560,-443
599616055071386496,-345
599616055079074560,-340
599616055086762624,-406
599616055094450580,-392
599616055102138880,-375
599616055109827200,-410
599616055117515520,-420
599616055125203840,-439
599616055132892160,-488
599616055140580352,-469
599616055148268672,-413
599616055155956992,-420
599616055163645312,-446
599616055171333632,-448
599616055179021952,-507
599616055186710272,-551
599616055194398592,-455
599616055202086912,-394
599616055209775232,-478
599616055217463424,-500
599616055225151744,-415
599616055232840064,-392
599616055240528384,-427
599616055248216704,-420
599616055255905024,-359
599616055263593344,-345
599616055271281664,-410
599616055278969984,-429
599616055286658176,-366
599616055294346496,-380
599616055302034816,-443
599616055309723136,-406
599616055317411456,-424
599616055325099776,-673
599616055332788096,-878
599616055340476416,-500
599616055348164736,565
599616055355852928,1295
599616055363541248,650
599616055371229568,-523
599616055378917888,-819
599616055386606208,-687
599616055394294528,-819
599616055401982848,-704
599616055409671168,-382
599616055417359488,-422
599616055425047808,-549
599616055432736000,-441
599616055440424320,-380
599616055448112640,-434
599616055455800960,-427
599616055463489280,-359
599616055471177600,-302
599616055478865920,-314
599616055486554240,-279
599616055494242560,-251
599616055501930752,-375
599616055509619072,-389
599616055517307392,-227
599616055524995712,-213
599616055532684032,-291
599616055540372352,-223
599616055548060672,-183
599616055555748992,-316
599616055563437312,-319
599616055571125504,-201
599616055578813824,-244
599616055586502144,-300
599616055594190464,-288
599616055601878784,-307
599616055609567104,-316
599616055617255424,-354
599616055624943744,-370
599616055632632064,-347
599616055640320384,-403
599616055648008576,-408
599616055655696944,-389
599616055663384832,-424
599616055671072768,-347
599616055678760704,-302
599616055686448768,-399
599616055694136704,-382
599616055701824640,-293
599616055709512576,-340
599616055717200512,-356
599616055724888448,-237
599616055732576512,-312
599616055740264448,-493
599616055747952384,-356
599616055755640320,-237
599616055763328256,-389
599616055771016192,-424
599616055778704256,-309
599616055786392192,-314
599616055794080128,-363
599616055801768064,-314
599616055809456000,-255
599616055817143936,-274
599616055824832000,-319
599616055832519936,-321
599616055840207872,-300
599616055847895808,-307
599616055855583744,-331
599616055863271680,-328
599616055870959744,-305
599616055878647680,-295
599616055886335616,-316
599616055894023552,-385
599616055901711488,-551
599616055909399424,-631
599616055917087488,-260
599616055924775424,554
599616055932463360,1232
599616055940151296,925
599616055947839232,-211
599616055955527296,-817
599616055963215232,-608
599616055970903168,-439
599616055978591104,-406
599616055986279040,-309
599616055993966976,-281
599616056001655040,-312
599616056009342976,-323
599616056017030912,-326
599616056024718848,-302
599616056032406784,-277
599616056040094720,-265
599616056047782784,-244
599616056055470720,-232
599616056063158656,-265
599616056070846592,-218
599616056078534528,-154
599616056086222464,-260
599616056093910528,-323
599616056101598464,-267
599616056109286400,-288
599616056116974336,-284
599616056124662272,-246
599616056132350208,-293
599616056140038272,-323
599616056147726208,-298
599616056155414144,-291
599616056163102080,-302
599616056170790016,-328
599616056178478080,-443
599616056186166016,-579
599616056193853952,-617
599616056201541888,-629
599616056209229824,-647
599616056216917877,-638
599616056224605824,-657
599616056232293760,-713
599616056239981696,-716
599616056247669760,-669
599616056255357696,-643
599616056263045632,-640
599616056270733568,-622
599616056278421504,-612
599616056286109440,-622
599616056293797504,-615
599616056301485440,-586
599616056309173376,-544
599616056316861312,-547
599616056324549248,-645
599616056332237184,-652
599616056339925248,-556
599616056347613184,-589
599616056355301120,-655
599616056362989056,-570
599616056370676992,-474
599616056378364928,-495
599616056386052992,-579
599616056393740928,-586
599616056401428864,-500
599616056409116800,-488
599616056416804736,-532
599616056424492672,-493
599616056432180736,-450
599616056439868672,-490
599616056447556608,-481
599616056455244544,-431
599616056462932480,-502
599616056470620416,-718
599616056478308480,-863
599616056485996416,-537
599616056493684352,377
599616056501372288,1192
599616056509060224,859
599616056516748288,-401
599616056524436224,-1051
599616056532124160,-824
599616056539812096,-671
599616056547500032,-633
599616056555187968,-596
599616056562876032,-741
599616056570563968,-753
599616056578251904,-615
599616056585939840,-636
599616056593627776,-678
599616056601315712,-650
599616056609003776,-662
599616056616691712,-640
599616056624379648,-584
599616056632067584,-605
599616056639755520,-664
599616056647443456,-657
599616056655131520,-624
599616056662819456,-647
599616056670507392,-673
599616056678195328,-664
599616056685883264,-664
599616056693571200,-683
599616056701259264,-701
599616056708947200,-690
599616056716635136,-687
599616056724323072,-704
599616056732011008,-706
599616056739699072,-727
599616056747387008,-760
599616056755074944,-758
599616056762762880,-770
599616056770450816,-784
599616056778138810,-753
599616056785826688,-770
599616056793514624,-819
599616056801202560,-786
599616056808890624,-744
599616056816578560,-760
599616056824266496,-763
599616056831954432,-737
599616056839642368,-748
599616056847330304,-770
599616056855018368,-772
599616056862706304,-770
599616056870394240,-741
599616056878082176,-720
599616056885770112,-732
599616056893458048,-725
599616056901146112,-713
599616056908834048,-723
599616056916521984,-711
599616056924209920,-676
599616056931897856,-633
599616056939585792,-596
599616056947273856,-572
599616056954961792,-575
599616056962649728,-603
599616056970337664,-640
599616056978025600,-666
599616056985713536,-650
599616056993401600,-626
599616057001089536,-650
599616057008777472,-685
599616057016465408,-671
599616057024153344,-678
599616057031841280,-831
599616057039529344,-946
599616057047217280,-643
599616057054905216,183
599616057062593152,1044
599616057070281088,974
599616057077969152,-115
599616057085657088,-856
599616057093345024,-730
599616057101032960,-568
599616057108720896,-570
599616057116408832,-481
599616057124096896,-453
599616057131784832,-483
599616057139472768,-434
599616057147160704,-380
599616057154848640,-375
599616057162536576,-363
599616057170224640,-359
599616057177912576,-349
599616057185600512,-286
599616057193288448,-255
599616057200976384,-267
599616057208664320,-220
599616057216352384,-178
599616057224040320,-190
599616057231728256,-176
599616057239416192,-143
599616057247104128,-124
599616057254792064,-138
599616057262480128,-171
599616057270168064,-169
599616057277856000,-176
599616057285543936,-246
599616057293231872,-281
599616057300919936,-265
599616057308607872,-293
599616057316295808,-338
599616057323983744,-340
599616057331671680,-356
599616057339359743,-380
599616057347048064,-375
599616057354736384,-366
599616057362424832,-380
599616057370113152,-387
599616057377801600,-361
599616057385489920,-347
599616057393178368,-361
599616057400866688,-356
599616057408555136,-363
599616057416243456,-389
599616057423931776,-361
599616057431620224,-314
599616057439308544,-335
599616057446996992,-363
599616057454685312,-347
599616057462373760,-335
599616057470062080,-338
599616057477750400,-335
599616057485438848,-323
599616057493127168,-312
599616057500815616,-305
599616057508503936,-314
599616057516192384,-354
599616057523880704,-382
599616057531569152,-385
599616057539257472,-408
599616057546945792,-420
599616057554634240,-396
599616057562322560,-394
599616057570011008,-410
599616057577699328,-455
599616057585387776,-591
599616057593076096,-746
599616057600764416,-598
599616057608452864,107
599616057616141184,957
599616057623829632,1025
599616057631517952,98
599616057639206400,-777
599616057646894720,-845
599616057654583168,-577
599616057662271488,-507
599616057669959808,-577
599616057677648256,-544
599616057685336576,-446
599616057693025024,-488
599616057700713344,-539
599616057708401792,-469
599616057716090112,-460
599616057723778432,-516
599616057731466880,-518
599616057739155200,-493
599616057746843648,-483
599616057754531968,-532
599616057762220416,-537
599616057769908736,-434
599616057777597184,-349
599616057785285504,-352
599616057792973824,-431
599616057800662272,-448
599616057808350592,-349
599616057816039040,-356
599616057823727360,-504
599616057831415808,-539
599616057839104128,-413
599616057846792448,-352
599616057854480896,-427
599616057862169216,-469
599616057869857664,-443
599616057877545984,-427
599616057885234432,-399
599616057892922752,-377
599616057900611198,-394
599616057908299136,-387
599616057915987072,-323
599616057923675008,-302
599616057931363072,-387
599616057939051008,-446
599616057946738944,-410
599616057954426880,-408
599616057962114816,-462
599616057969802752,-446
599616057977490816,-389
599616057985178752,-385
599616057992866688,-408
599616058000554624,-443
599616058008242560,-483
599616058015930496,-471
599616058023618560,-431
599616058031306496,-436
599616058038994432,-436
599616058046682368,-403
599616058054370304,-403
599616058062058240,-415
599616058069746304,-417
599616058077434240,-434
599616058085122176,-443
599616058092810112,-446
599616058100498048,-457
599616058108185984,-450
599616058115874048,-431
599616058123561984,-436
599616058131249920,-497
599616058138937856,-659
599616058146625792,-835
599616058154313728,-662
599616058162001792,77
599616058169689728,925
599616058177377664,885
599616058185065600,-192
599616058192753536,-932
599616058200441600,-772
599616058208129536,-657
599616058215817472,-699
599616058223505408,-530
599616058231193344,-462
599616058238881280,-535
599616058246569344,-521
599616058254257280,-488
599616058261945216,-500
599616058269633152,-509
599616058277321088,-516
599616058285009024,-507
599616058292697088,-488
599616058300385024,-495
599616058308072960,-497
599616058315760896,-450
599616058323448832,-410
599616058331136768,-417
599616058338824832,-434
599616058346512768,-453
599616058354200704,-497
599616058361888640,-537
599616058369576576,-565
599616058377264512,-596
599616058384952576,-615
599616058392640512,-598
599616058400328448,-575
599616058408016384,-570
599616058415704320,-568
599616058423392384,-579
599616058431080320,-612
599616058438768256,-633
599616058446456192,-617
599616058454144128,-593
599616058461832131,-584
599616058469520128,-586
599616058477208064,-577
599616058484896000,-551
599616058492584064,-544
599616058500272000,-542
599616058507959936,-523
599616058515647872,-511
599616058523335808,-514
599616058531023744,-523
599616058538711808,-514
599616058546399744,-497
599616058554087680,-497
599616058561775616,-511
599616058569463552,-523
599616058577151488,-528
599616058584839552,-528
599616058592527488,-521
599616058600215424,-518
599616058607903360,-539
599616058615591296,-563
599616058623279232,-563
599616058630967296,-549
599616058638655232,-542
599616058646343168,-535
599616058654031104,-516
599616058661719040,-514
599616058669406976,-518
599616058677095040,-525
599616058684782976,-624
599616058692470912,-821
599616058700158848,-779
599616058707846784,-180
599616058715534720,746
599616058723222784,1103
599616058730910720,262
599616058738598656,-798
599616058746286592,-901
599616058753974528,-657
599616058761662592,-683
599616058769350528,-615
599616058777038464,-495
599616058784726400,-561
599616058792414336,-596
599616058800102272,-530
599616058807790336,-516
599616058815478272,-532
599616058823166208,-504
599616058830854144,-469
599616058838542080,-460
599616058846230016,-457
599616058853918080,-457
599616058861606016,-471
599616058869293952,-481
599616058876981888,-476
599616058884669824,-469
599616058892357760,-467
599616058900045824,-488
599616058907733760,-507
599616058915421696,-511
599616058923109632,-514
599616058930797568,-509
599616058938485504,-516
599616058946173568,-521
599616058953861504,-497
599616058961549440,-460
599616058969237376,-441
599616058976925312,-446
599616058984613376,-462
599616058992301312,-476
599616058999989248,-464
599616059007677184,-441
599616059015365120,-439
599616059023053064,-434
599616059030740992,-413
599616059038428928,-403
599616059046116864,-413
599616059053804928,-417
599616059061492864,-439
599616059069180800,-455
599616059076868736,-446
599616059084556672,-448
599616059092244608,-471
599616059099932672,-493
599616059107620608,-502
599616059115308544,-495
599616059122996480,-488
599616059130684416,-460
599616059138372352,-424
599616059146060416,-429
599616059153748352,-450
599616059161436288,-467
599616059169124224,-488
599616059176812160,-495
599616059184500096,-490
599616059192188160,-495
599616059199876096,-521
599616059207564032,-537
599616059215251968,-542
599616059222939904,-605
599616059230627840,-781
599616059238315904,-868
599616059246003840,-504
599616059253691776,314
599616059261379712,1025
599616059269067648,718
599616059276755584,-450
599616059284443648,-1004
599616059292131584,-732
599616059299819520,-601
599616059307507456,-582
599616059315195392,-429
599616059322883456,-408
599616059330571392,-464
599616059338259328,-408
599616059345947264,-340
599616059353635200,-361
599616059361323136,-385
599616059369011200,-349
599616059376699136,-319
599616059384387072,-319
599616059392075008,-302
599616059399762944,-262
599616059407450880,-227
599616059415138944,-215
599616059422826880,-232
599616059430514816,-248
599616059438202752,-239
599616059445890688,-237
599616059453578624,-260
599616059461266688,-286
599616059468954624,-291
599616059476642560,-291
599616059484330496,-309
599616059492018432,-333
599616059499706368,-335
599616059507394432,-338
599616059515082368,-349
599616059522770304,-356
599616059530458240,-375
599616059538146176,-394
599616059545834240,-394
599616059553522176,-403
599616059561210112,-424
599616059568898048,-424
599616059576585984,-417
599616059584273997,-422
599616059591961984,-403
599616059599649920,-385
599616059607337856,-396
599616059615025920,-403
599616059622713856,-410
599616059630401792,-420
599616059638089728,-413
599616059645777664,-413
599616059653465600,-434
599616059661153664,-427
599616059668841600,-377
599616059676529536,-347
599616059684217472,-370
599616059691905408,-382
599616059699593344,-361
599616059707281408,-389
599616059714969344,-455
599616059722657280,-469
599616059730345216,-439
599616059738033152,-401
599616059745721088,-387
599616059753409152,-413
599616059761097088,-427
599616059768785024,-532
599616059776472960,-723
599616059784160896,-591
599616059791848832,126
599616059799536896,1033
599616059807224832,1267
599616059814912768,434
599616059822600704,-448
599616059830288640,-476
599616059837976576,-251
599616059845664640,-234
599616059853352576,-154
599616059861040512,-65
599616059868728448,-98
599616059876416384,-112
599616059884104448,-82
599616059891792384,-93
599616059899480320,-110
599616059907168256,-65
599616059914856192,-21
599616059922544128,-23
599616059930232192,-14
599616059937920128,9
599616059945608064,28
599616059953296000,37
599616059960983936,18
599616059968671872,-21
599616059976359936,-42
599616059984047872,-49
599616059991735808,-77
599616059999423744,-124
599616060007111680,-166
599616060014799616,-201
599616060022487680,-234
599616060030175616,-262
599616060037863552,-300
599616060045551488,-314
599616060053239424,-302
599616060060927360,-354
599616060068615424,-448
599616060076303360,-474
599616060083991296,-469
599616060091679232,-488
599616060099367168,-490
599616060107055232,-488
599616060114743168,-500
599616060122431104,-507
599616060130119040,-497
599616060137806976,-485
599616060145494930,-483
599616060153182848,-467
599616060160870784,-424
599616060168558720,-380
599616060176246784,-361
599616060183934720,-363
599616060191622656,-375
599616060199310592,-349
599616060206998528,-293
599616060214686464,-284
599616060222374528,-321
599616060230062464,-377
599616060237750400,-429
599616060245438336,-457
599616060253126272,-464
599616060260814208,-476
599616060268502272,-490
599616060276190208,-511
599616060283878144,-547
599616060291566080,-544
599616060299254016,-532
599616060306941952,-640
599616060314630016,-821
599616060322317952,-765
599616060330005888,-178
599616060337693824,716
599616060345381760,962
599616060353069696,35
599616060360757760,-943
599616060368445696,-1014
599616060376133632,-812
599616060383821568,-774
599616060391509504,-676
599616060399197440,-622
599616060406885504,-662
599616060414573440,-608
599616060422261376,-532
599616060429949312,-535
599616060437637248,-478
599616060445325312,-368
599616060453013248,-316
599616060460701184,-265
599616060468389120,-187
599616060476077056,-143
599616060483764992,-129
599616060491453056,-98
599616060499140992,-51
599616060506828928,-16
599616060514516864,16
599616060522204800,63
599616060529892736,82
599616060537580800,39
599616060545268736,-23
599616060552956672,-65
599616060560644608,-112
599616060568332544,-183
599616060576020480,-244
599616060583708544,-298
599616060591396480,-399
599616060599084416,-495
599616060606772352,-554
599616060614460288,-619
599616060622148224,-650
599616060629836288,-629
599616060637524224,-601
599616060645212160,-572
599616060652900096,-547
599616060660588032,-525
599616060668276096,-509
599616060675964032,-495
599616060683651968,-474
599616060691339904,-467
599616060699027840,-469
599616060706715863,-474
599616060714404224,-500
599616060722092544,-509
599616060729780992,-493
599616060737469312,-471
599616060745157760,-431
599616060752846080,-417
599616060760534528,-410
599616060768222848,-359
599616060775911296,-316
599616060783599616,-352
599616060791287936,-370
599616060798976384,-314
599616060806664704,-281
599616060814353152,-288
599616060822041472,-293
599616060829729920,-323
599616060837418240,-366
599616060845106560,-457
599616060852795008,-586
599616060860483328,-471
599616060868171776,157
599616060875860096,925
599616060883548544,840
599616060891236864,-262
599616060898925312,-1058
599616060906613632,-941
599616060914301952,-765
599616060921990400,-791
599616060929678720,-718
599616060937367168,-678
599616060945055488,-716
599616060952743936,-683
599616060960432256,-629
599616060968120576,-624
599616060975809024,-608
599616060983497344,-554
599616060991185792,-537
599616060998874112,-556
599616061006562560,-539
599616061014250880,-518
599616061021939328,-511
599616061029627648,-504
599616061037315968,-488
599616061045004416,-474
599616061052692736,-483
599616061060381184,-490
599616061068069504,-455
599616061075757952,-401
599616061083446272,-380
599616061091134592,-373
599616061098823040,-363
599616061106511360,-335
599616061114199808,-291
599616061121888128,-255
599616061129576576,-230
599616061137264896,-211
599616061144953344,-206
599616061152641664,-220
599616061160329984,-239
599616061168018432,-234
599616061175706752,-227
599616061183395200,-255
599616061191083520,-274
599616061198771968,-230
599616061206460288,-154
599616061214148608,-100
599616061221837056,-51
599616061229525376,-23
599616061237213824,-49
599616061244902144,-91
599616061252590592,-61
599616061260278912,14
599616061267967318,2
599616061275655296,-164
599616061283343232,-363
599616061291031168,-471
599616061298719232,-525
599616061306407168,-565
599616061314095104,-568
599616061321783040,-544
599616061329470976,-549
599616061337158912,-572
599616061344846976,-544
599616061352534912,-500
599616061360222848,-497
599616061367910784,-511
599616061375598720,-549
599616061383286656,-659
599616061390974720,-788
599616061398662656,-678
599616061406350592,-100
599616061414038528,777
599616061421726464,1110
599616061429414400,262
599616061437102464,-744
599616061444790400,-767
599616061452478336,-460
599616061460166272,-427
599616061467854208,-314
599616061475542144,-164
599616061483230208,-178
599616061490918144,-206
599616061498606080,-201
599616061506294016,-255
599616061513981952,-291
599616061521669888,-253
599616061529357952,-199
599616061537045888,-187
599616061544733824,-185
599616061552421760,-112
599616061560109696,-44
599616061567797760,-112
599616061575485696,-253
599616061583173632,-342
599616061590861568,-382
599616061598549504,-403
599616061606237440,-385
599616061613925504,-349
599616061621613440,-354
599616061629301376,-392
599616061636989312,-431
599616061644677248,-455
599616061652365184,-469
599616061660053248,-500
599616061667741184,-551
599616061675429120,-584
599616061683117056,-603
599616061690804992,-629
599616061698492928,-624
599616061706180992,-617
599616061713868928,-638
599616061721556864,-624
599616061729244800,-586
599616061736932736,-586
599616061744620672,-577
599616061752308736,-514
599616061759996672,-462
599616061767684608,-467
599616061775372544,-455
599616061783060480,-382
599616061790748544,-307
599616061798436480,-286
599616061806124416,-312
599616061813812352,-345
599616061821500288,-396
599616061829188251,-481
599616061836876160,-558
599616061844564096,-589
599616061852252032,-601
599616061859940096,-561
599616061867628032,-450
599616061875315968,-333
599616061883003904,-260
599616061890691840,-218
599616061898379776,-192
599616061906067840,-173
599616061913755776,-227
599616061921443712,-410
599616061929131648,-544
599616061936819584,-288
599616061944507520,429
599616061952195584,1065
599616061959883520,760
599616061967571456,-305
599616061975259392,-901
599616061982947328,-805
599616061990635264,-725
599616061998323328,-709
599616062006011264,-612
599616062013699200,-601
599616062021387136,-647
599616062029075072,-636
599616062036763008,-589
599616062044451072,-551
599616062052139008,-537
599616062059826944,-530
599616062067514880,-500
599616062075202816,-450
599616062082890752,-410
599616062090578816,-387
599616062098266752,-347
599616062105954688,-284
599616062113642624,-227
599616062121330560,-180
599616062129018624,-126
599616062136706560,-98
599616062144394496,-82
599616062152082432,-51
599616062159770368,-72
599616062167458304,-122
599616062175146368,-98
599616062182834304,-105
599616062190522240,-204
599616062198210176,-199
599616062205898112,-91
599616062213586048,-46
599616062221274112,-44
599616062228962048,-14
599616062236649984,-46
599616062244337920,-190
599616062252025856,-338
599616062259713792,-431
599616062267401856,-530
599616062275089792,-570
599616062282777728,-518
599616062290465664,-528
599616062298153600,-610
599616062305841536,-657
599616062313529600,-643
599616062321217536,-591
599616062328905472,-575
599616062336593408,-610
599616062344281344,-608
599616062351969408,-558
599616062359657344,-575
599616062367345280,-626
599616062375033216,-584
599616062382721152,-525
599616062390409184,-539
599616062398097152,-577
599616062405785088,-593
599616062413473024,-572
599616062421161088,-554
599616062428849024,-544
599616062436536960,-521
599616062444224896,-511
599616062451912832,-591
599616062459600768,-755
599616062467288832,-772
599616062474976768,-331
599616062482664704,542
599616062490352640,1187
599616062498040576,744
599616062505728512,-392
599616062513416576,-807
599616062521104512,-488
599616062528792448,-338
599616062536480384,-340
599616062544168320,-244
599616062551856256,-185
599616062559544320,-204
599616062567232256,-225
599616062574920192,-232
599616062582608128,-218
599616062590296064,-215
599616062597984000,-232
599616062605672064,-234
599616062613360000,-211
599616062621047936,-169
599616062628735872,-164
599616062636423808,-197
599616062644111744,-173
599616062651799808,-110
599616062659487744,-107
599616062667175680,-140
599616062674863616,-140
599616062682551552,-129
599616062690239616,-147
599616062697927552,-164
599616062705615488,-154
599616062713303424,-169
599616062720991360,-215
599616062728679296,-230
599616062736367360,-225
599616062744055296,-269
599616062751743232,-326
599616062759431168,-319
599616062767119104,-300
599616062774807040,-326
599616062782495104,-340
599616062790183040,-307
599616062797870976,-284
599616062805558912,-309
599616062813246848,-340
599616062820934784,-321
599616062828622848,-291
599616062836310784,-305
599616062843998720,-321
599616062851686656,-300
599616062859374592,-291
599616062867062528,-321
599616062874750592,-345
599616062882438528,-328
599616062890126464,-302
599616062897814400,-286
599616062905502336,-255
599616062913190400,-232
599616062920878336,-262
599616062928566272,-295
599616062936254208,-302
599616062943942144,-305
599616062951630117,-291
599616062959318016,-295
599616062967005952,-335
599616062974693888,-326
599616062982381952,-293
599616062990069888,-389
599616062997757824,-631
599616063005445760,-673
599616063013133696,-143
599616063020821632,767
599616063028509696,1209
599616063036197632,511
599616063043885568,-554
599616063051573504,-774
599616063059261440,-504
599616063066949376,-453
599616063074637440,-439
599616063082325376,-380
599616063090013312,-380
599616063097701248,-375
599616063105389184,-345
599616063113077120,-342
599616063120765184,-373
599616063128453120,-382
599616063136141056,-335
599616063143828992,-323
599616063151516928,-385
599616063159204864,-406
599616063166892928,-373
599616063174580864,-385
599616063182268800,-427
599616063189956736,-410
599616063197644672,-373
599616063205332608,-366
599616063213020672,-359
599616063220708608,-361
599616063228396544,-385
599616063236084480,-380
599616063243772416,-307
599616063251460480,-269
599616063259148416,-319
599616063266836352,-302
599616063274524288,-234
599616063282212224,-251
599616063289900160,-295
599616063297588224,-302
599616063305276160,-305
599616063312964096,-319
599616063320652032,-347
599616063328339968,-361
599616063336027904,-340
599616063343715968,-326
599616063351403904,-342
599616063359091840,-347
599616063366779776,-319
599616063374467712,-286
599616063382155648,-272
599616063389843712,-281
599616063397531648,-267
599616063405219584,-237
599616063412907520,-253
599616063420595456,-293
599616063428283392,-251
599616063435971456,-171
599616063443659392,-192
599616063451347328,-232
599616063459035264,-201
599616063466723200,-204
599616063474411264,-269
599616063482099200,-288
599616063489787136,-272
599616063497475072,-284
599616063505163008,-284
599616063512851050,-279
599616063520539008,-335
599616063528226944,-490
599616063535914880,-713
599616063543602944,-704
599616063551290880,-93
599616063558978816,910
599616063566666752,1392
599616063574354688,636
599616063582042624,-483
599616063589730688,-772
599616063597418624,-662
599616063605106560,-659
599616063612794496,-521
599616063620482432,-436
599616063628170368,-549
599616063635858432,-563
599616063643546368,-497
599616063651234304,-523
599616063658922240,-565
599616063666610176,-577
599616063674298112,-603
599616063681986176,-633
599616063689674112,-640
599616063697362048,-624
599616063705049984,-638
599616063712737920,-671
599616063720425856,-647
599616063728113920,-601
599616063735801856,-539
599616063743489792,-471
599616063751177728,-417
599616063758865664,-370
599616063766553600,-401
599616063774241664,-490
599616063781929600,-532
599616063789617536,-568
599616063797305472,-685
599616063804993408,-894
599616063812681472,-1148
599616063820369408,-1345
599616063828057344,-1457
599616063835745280,-1467
599616063843433216,-1324
599616063851121152,-1133
599616063858809216,-1021
599616063866497152,-920
599616063874185088,-772
599616063881873024,-645
599616063889560960,-532
599616063897248896,-396
599616063904936960,-288
599616063912624896,-213
599616063920312832,-133
599616063928000768,-119
599616063935688704,-166
599616063943376640,-152
599616063951064704,-126
599616063958752640,-169
599616063966440576,-173
599616063974128512,-129
599616063981816448,-129
599616063989504384,-136
599616063997192448,-129
599616064004880384,-169
599616064012568320,-194
599616064020256256,-131
599616064027944192,-70
599616064035632256,-72
599616064043320192,-107
599616064051008128,-131
599616064058696064,-272
599616064066384000,-701
599616064074071983,-1096
599616064081759872,-915
599616064089447808,-136
599616064097135744,640
599616064104823808,521
599616064112511744,-439
599616064120199680,-976
599616064127887616,-786
599616064135575552,-694
599616064143263488,-746
599616064150951552,-673
599616064158639488,-680
599616064166327424,-746
599616064174015360,-676
599616064181703296,-584
599616064189391232,-572
599616064197079296,-497
599616064204767232,-385
599616064212455168,-331
599616064220143104,-262
599616064227831040,-180
599616064235518976,-150
599616064243207040,-126
599616064250894976,-122
599616064258582912,-171
599616064266270848,-169
599616064273958784,-159
599616064281646720,-176
599616064289334784,-129
599616064297022720,-107
599616064304710656,-201
599616064312398592,-307
599616064320086528,-366
599616064327774464,-417
599616064335462528,-455
599616064343150464,-422
599616064350838400,-375
599616064358526336,-373
599616064366214272,-326
599616064373902336,-220
599616064381590272,-147
599616064389278208,-119
599616064396966144,-91
599616064404654080,-70
599616064412342016,-98
599616064420030080,-105
599616064427718016,-75
599616064435405952,-112
599616064443093888,-169
599616064450781824,-185
599616064458469760,-281
599616064466157824,-427
599616064473845760,-514
599616064481533696,-584
599616064489221632,-647
599616064496909568,-636
599616064504597504,-601
599616064512285568,-605
599616064519973504,-608
599616064527661440,-591
599616064535349376,-584
599616064543037312,-584
599616064550725248,-577
599616064558413312,-575
599616064566101248,-577
599616064573789184,-572
599616064581477120,-547
599616064589165056,-514
599616064596853120,-572
599616064604541056,-760
599616064612228992,-784
599616064619916928,-262
599616064627604864,732
599616064635292916,1418
599616064642980992,847
599616064650669056,-467
599616064658356992,-953
599616064666045056,-676
599616064673733120,-662
599616064681421184,-767
599616064689109120,-647
599616064696797184,-572
599616064704485248,-603
599616064712173184,-537
599616064719861248,-415
599616064727549312,-363
599616064735237376,-368
599616064742925312,-370
599616064750613376,-392
599616064758301440,-511
599616064765989376,-626
599616064773677440,-601
599616064781365504,-539
599616064789053568,-558
599616064796741504,-589
599616064804429568,-565
599616064812117632,-532
599616064819805568,-547
599616064827493632,-582
599616064835181696,-584
599616064842869760,-575
599616064850557696,-570
599616064858245760,-561
599616064865933824,-577
599616064873621760,-591
599616064881309824,-549
599616064888997888,-544
599616064896685952,-586
599616064904373888,-577
599616064912061952,-591
599616064919750016,-612
599616064927438080,-525
599616064935126016,-488
599616064942814080,-495
599616064950502144,-392
599616064958190080,-314
599616064965878144,-293
599616064973566208,-211
599616064981254272,-143
599616064988942208,-119
599616064996630272,-82
599616065004318336,-98
599616065012006272,-164
599616065019694336,-178
599616065027382400,-192
599616065035070464,-255
599616065042758400,-333
599616065050446464,-396
599616065058134528,-462
599616065065822464,-532
599616065073510528,-568
599616065081198592,-558
599616065088886656,-532
599616065096574592,-467
599616065104262656,-382
599616065111950720,-363
599616065119638656,-389
599616065127326720,-453
599616065135014784,-596
599616065142702848,-532
599616065150390784,98
599616065158078848,1084
599616065165766912,1476
599616065173454848,596
599616065181142912,-549
599616065188830976,-739
599616065196518940,-568
599616065204206976,-669
599616065211895040,-678
599616065219582976,-596
599616065227271040,-664
599616065234959104,-734
599616065242647168,-697
599616065250335104,-645
599616065258023168,-603
599616065265711232,-570
599616065273399168,-565
599616065281087232,-523
599616065288775296,-441
599616065296463360,-382
599616065304151296,-335
599616065311839360,-302
599616065319527424,-321
599616065327215360,-361
599616065334903424,-370
599616065342591488,-356
599616065350279552,-361
599616065357967488,-387
599616065365655552,-401
599616065373343616,-424
599616065381031552,-495
599616065388719616,-568
599616065396407680,-615
599616065404095744,-655
599616065411783680,-659
599616065419471744,-575
599616065427159808,-455
599616065434847744,-396
599616065442535808,-434
599616065450223872,-403
599616065457911936,-267
599616065465599872,-331
599616065473287936,-542
599616065480976000,-537
599616065488663936,-399
599616065496352000,-316
599616065504040064,-237
599616065511728128,-197
599616065519416064,-288
599616065527104128,-434
599616065534792192,-525
599616065542480256,-589
599616065550168192,-673
599616065557856256,-673
599616065565544320,-542
599616065573232256,-457
599616065580920320,-535
599616065588608384,-655
599616065596296448,-605
599616065603984384,-434
599616065611672448,-377
599616065619360512,-338
599616065627048448,-298
599616065634736512,-410
599616065642424576,-450
599616065650112640,-410
599616065657800576,-603
599616065665488640,-906
599616065673176704,-871
599616065680864640,-316
599616065688552704,443
599616065696240768,568
599616065703928832,-518
599616065711616768,-1838
599616065719304832,-2190
599616065726992896,-2084
599616065734680832,-2164
599616065742368896,-2171
599616065750056960,-2122
599616065757744960,-2216
599616065765432960,-2307
599616065773121024,-2286
599616065780808960,-2267
599616065788497024,-2246
599616065796185088,-2120
599616065803873152,-1929
599616065811561088,-1681
599616065819249152,-1359
599616065826937216,-1051
599616065834625152,-781
599616065842313216,-565
599616065850001280,-493
599616065857689344,-523
599616065865377280,-551
599616065873065344,-532
599616065880753408,-493
599616065888441344,-483
599616065896129408,-532
599616065903817472,-579
599616065911505536,-591
599616065919193472,-638
599616065926881536,-730
599616065934569600,-821
599616065942257536,-939
599616065949945600,-1122
599616065957633664,-1352
599616065965321728,-1582
599616065973009664,-1746
599616065980697728,-1864
599616065988385792,-1976
599616065996073728,-2077
599616066003761792,-2143
599616066011449856,-2141
599616066019137920,-2051
599616066026825856,-1962
599616066034513920,-1951
599616066042201984,-1993
599616066049889920,-2033
599616066057577984,-2007
599616066065266048,-1925
599616066072954112,-1831
599616066080642048,-1681
599616066088330112,-1457
599616066096018176,-1187
599616066103706240,-913
599616066111394176,-692
599616066119082240,-556
599616066126770304,-504
599616066134458240,-436
599616066142146304,-194
599616066149834368,117
599616066157522432,171
599616066165210368,23
599616066172898432,65
599616066180586496,223
599616066188274432,100
599616066195962496,-192
599616066203650560,-115
599616066211338624,549
599616066219026560,1415
599616066226714624,1673
599616066234402688,856
599616066242090624,-171
599616066249778688,-427
599616066257466752,-342
599616066265154816,-377
599616066272842752,-335
599616066280530816,-251
599616066288218880,-265
599616066295906816,-284
599616066303594880,-232
599616066311282944,-185
599616066318970980,-183
599616066326658816,-180
599616066334346624,-183
599616066342034304,-204
599616066349722112,-225
599616066357409792,-258
599616066365097600,-316
599616066372785280,-340
599616066380473088,-328
599616066388160768,-387
599616066395848576,-525
599616066403536256,-664
599616066411224064,-748
599616066418911744,-704
599616066426599552,-544
599616066434287360,-410
599616066441975040,-321
599616066449662848,-255
599616066457350528,-253
599616066465038336,-286
599616066472726016,-295
599616066480413824,-281
599616066488101504,-286
599616066495789312,-333
599616066503476992,-359
599616066511164800,-331
599616066518852480,-333
599616066526540288,-394
599616066534228096,-493
599616066541915776,-582
599616066549603584,-603
599616066557291264,-582
599616066564979072,-565
599616066572666752,-563
599616066580354560,-563
599616066588042240,-518
599616066595730048,-469
599616066603417728,-462
599616066611105536,-439
599616066618793216,-406
599616066626481024,-422
599616066634168832,-443
599616066641856512,-427
599616066649544320,-415
599616066657232000,-417
599616066664919808,-417
599616066672607488,-415
599616066680295296,-415
599616066687982976,-434
599616066695670784,-462
599616066703358464,-483
599616066711046272,-507
599616066718733952,-577
599616066726421760,-760
599616066734109568,-901
599616066741797248,-626
599616066749485056,169
599616066757172736,967
599616066764860544,793
599616066772548224,-394
599616066780236032,-1166
599616066787923712,-974
599616066795611520,-720
599616066803299200,-664
599616066810987008,-575
599616066818674688,-605
599616066826362496,-687
599616066834050304,-615
599616066841737984,-509
599616066849425792,-493
599616066857113472,-467
599616066864801280,-408
599616066872488960,-380
599616066880176652,-382
599616066887864576,-385
599616066895552512,-431
599616066903240448,-544
599616066910928512,-652
599616066918616448,-713
599616066926304384,-730
599616066933992320,-709
599616066941680256,-680
599616066949368192,-659
599616066957056256,-659
599616066964744192,-676
599616066972432128,-687
599616066980120064,-680
599616066987808000,-655
599616066995495936,-619
599616067003184000,-612
599616067010871936,-650
599616067018559872,-678
599616067026247808,-687
599616067033935744,-723
599616067041623680,-716
599616067049311744,-655
599616067056999680,-650
599616067064687616,-725
599616067072375552,-772
599616067080063488,-767
599616067087751424,-767
599616067095439488,-765
599616067103127424,-706
599616067110815360,-636
599616067118503296,-615
599616067126191232,-626
599616067133879168,-662
599616067141567232,-692
599616067149255168,-662
599616067156943104,-640
599616067164631040,-720
599616067172318976,-809
599616067180007040,-788
599616067187694976,-741
599616067195382912,-744
599616067203070848,-692
599616067210758784,-605
599616067218446720,-626
599616067226134784,-673
599616067233822720,-664
599616067241510656,-713
599616067249198592,-885
599616067256886528,-1049
599616067264574464,-878
599616067272262528,-140
599616067279950464,760
599616067287638400,880
599616067295326336,-42
599616067303014272,-878
599616067310702208,-906
599616067318390272,-718
599616067326078208,-601
599616067333766144,-462
599616067341454080,-528
599616067349142016,-680
599616067356829952,-605
599616067364518016,-467
599616067372205952,-443
599616067379893888,-446
599616067387581824,-439
599616067395269760,-408
599616067402957824,-316
599616067410645760,-312
599616067418333696,-490
599616067426021632,-584
599616067433709568,-399
599616067441397585,-164
599616067449085568,-145
599616067456773504,-286
599616067464461440,-288
599616067472149504,-255
599616067479837440,-368
599616067487525376,-326
599616067495213312,-244
599616067502901248,-349
599616067510589184,-208
599616067518277248,46
599616067525965184,-14
599616067533653120,-37
599616067541341056,129
599616067549028992,194
599616067556716928,105
599616067564404992,70
599616067572092928,248
599616067579780864,408
599616067587468800,349
599616067595156736,316
599616067602844672,450
599616067610532736,612
599616067618220672,734
599616067625908608,863
599616067633596544,979
599616067641284480,1033
599616067648972416,1077
599616067656660480,1138
599616067664348416,1150
599616067672036352,1138
599616067679724288,1150
599616067687412224,1098
599616067695100160,1070
599616067702788224,1131
599616067710476160,1159
599616067718164096,1110
599616067725852032,1028
599616067733539968,1004
599616067741228032,993
599616067748915968,941
599616067756603904,915
599616067764291840,908
599616067771979776,842
599616067779667712,640
599616067787355776,392
599616067795043712,443
599616067802731648,1117
599616067810419584,2162
599616067818107520,2570
599616067825795456,1537
599616067833483520,133
599616067841171456,-115
599616067848859392,194
599616067856547328,173
599616067864235264,204
599616067871923200,382
599616067879611264,375
599616067887299200,288
599616067894987136,316
599616067902675072,361
599616067910363008,291
599616067918050944,255
599616067925739008,349
599616067933426944,312
599616067941114880,157
599616067948802816,112
599616067956490752,75
599616067964178816,2
599616067971866752,-65
599616067979554688,-112
599616067987242624,2
599616067994930560,159
599616068002618518,218
599616068010306560,269
599616068017994624,267
599616068025682560,218
599616068033370624,298
599616068041058688,349
599616068048746752,227
599616068056434688,258
599616068064122752,420
599616068071810816,394
599616068079498752,333
599616068087186816,382
599616068094874880,415
599616068102562944,417
599616068110250880,436
599616068117938944,413
599616068125627008,366
599616068133314944,349
599616068141003008,356
599616068148691072,352
599616068156379136,347
599616068164067072,345
599616068171755136,300
599616068179443200,253
599616068187131136,225
599616068194819200,154
599616068202507264,89
599616068210195328,84
599616068217883264,91
599616068225571328,75
599616068233259392,46
599616068240947328,11
599616068248635392,-23
599616068256323456,-72
599616068264011520,-133
599616068271699456,-150
599616068279387520,-119
599616068287075584,-161
599616068294763648,-248
599616068302451584,-223
599616068310139648,-178
599616068317827712,-361
599616068325515648,-636
599616068333203712,-497
599616068340891776,269
599616068348579840,1141
599616068356267776,1133
599616068363955840,30
599616068371643904,-878
599616068379331840,-777
599616068387019904,-537
599616068394707968,-572
599616068402396032,-478
599616068410083968,-368
599616068417772032,-420
599616068425460096,-502
599616068433148032,-554
599616068440836096,-563
599616068448524160,-558
599616068456212224,-617
599616068463900160,-664
599616068471588224,-577
599616068479276288,-493
599616068486964224,-521
599616068494652288,-547
599616068502340352,-532
599616068510028416,-521
599616068517716352,-483
599616068525404416,-453
599616068533092480,-488
599616068540780416,-537
599616068548468480,-532
599616068556156544,-507
599616068563844542,-504
599616068571532544,-539
599616068579220608,-563
599616068586908544,-547
599616068594596608,-556
599616068602284672,-575
599616068609972736,-558
599616068617660672,-572
599616068625348736,-631
599616068633036800,-669
599616068640724736,-671
599616068648412800,-673
599616068656100864,-704
599616068663788928,-748
599616068671476864,-739
599616068679164928,-723
599616068686852992,-781
599616068694540928,-845
599616068702228992,-859
599616068709917056,-878
599616068717605120,-925
599616068725293056,-976
599616068732981120,-1025
599616068740669184,-1079
599616068748357120,-1082
599616068756045184,-967
599616068763733248,-866
599616068771421312,-868
599616068779109248,-880
599616068786797312,-833
599616068794485376,-690
599616068802173312,-509
599616068809861376,-431
599616068817549440,-518
599616068825237504,-575
599616068832925440,-591
599616068840613504,-774
599616068848301568,-866
599616068855989504,-878
599616068863677568,-953
599616068871365632,-554
599616068879053696,368
599616068886741632,849
599616068894429696,213
599616068902117760,-809
599616068909805824,-1094
599616068917493760,-892
599616068925181824,-838
599616068932869888,-817
599616068940557824,-772
599616068948245888,-814
599616068955933952,-831
599616068963622016,-774
599616068971309952,-744
599616068978998016,-739
599616068986686080,-713
599616068994374016,-687
599616069002062080,-671
599616069009750144,-647
599616069017438208,-617
599616069025126144,-577
599616069032814208,-561
599616069040502272,-598
599616069048190208,-589
599616069055878272,-507
599616069063566336,-476
599616069071254400,-500
599616069078942336,-467
599616069086630400,-392
599616069094318464,-340
599616069102006400,-316
599616069109694464,-293
599616069117382528,-253
599616069125070562,-206
599616069132758656,-180
599616069140446720,-178
599616069148134656,-152
599616069155822720,-126
599616069163510784,-161
599616069171198848,-208
599616069178886784,-169
599616069186574848,-107
599616069194262912,-166
599616069201950848,-218
599616069209638912,-133
599616069217326976,-86
599616069225015040,-119
599616069232702976,-63
599616069240391040,-53
599616069248079104,-171
599616069255767040,-119
599616069263455104,-150
599616069271143168,-424
599616069278831232,-333
599616069286519168,-65
599616069294207232,-122
599616069301895296,-169
599616069309583232,-58
599616069317271296,-53
599616069324959360,-100
599616069332647424,-70
599616069340335360,-44
599616069348023424,9
599616069355711488,70
599616069363399424,-28
599616069371087488,-115
599616069378775552,-39
599616069386463616,-107
599616069394151552,-286
599616069401839616,-77
599616069409527680,685
599616069417215616,1509
599616069424903680,1519
599616069432591744,572
599616069440279808,-366
599616069447967744,-509
599616069455655808,-105
599616069463343872,161
599616069471031936,154
599616069478719872,157
599616069486407936,208
599616069494096000,218
599616069501783936,223
599616069509472000,197
599616069517160064,171
599616069524848128,342
599616069532536064,382
599616069540224128,49
599616069547912192,56
599616069555600128,345
599616069563288192,232
599616069570976256,119
599616069578664320,241
599616069586352256,248
599616069594040320,208
599616069601728384,237
599616069609416320,260
599616069617104384,314
599616069624792448,262
599616069632480512,56
599616069640168448,126
599616069647856512,293
599616069655544576,11
599616069663232512,-138
599616069670920576,138
599616069678608640,164
599616069686296582,0
599616069693984640,28
599616069701672704,44
599616069709360640,11
599616069717048704,68
599616069724736768,100
599616069732424832,39
599616069740112768,91
599616069747800832,180
599616069755488896,-100
599616069763176832,-288
599616069770864896,21
599616069778552960,18
599616069786241024,-237
599616069793928960,-136
599616069801617024,-103
599616069809305088,-225
599616069816993024,-131
599616069824681088,-30
599616069832369152,-61
599616069840057216,-58
599616069847745152,-65
599616069855433216,-98
599616069863121280,-70
599616069870809216,-56
599616069878497280,-96
599616069886185344,-84
599616069893873408,-68
599616069901561344,-105
599616069909249408,-138
599616069916937472,-187
599616069924625408,-333
599616069932313472,-455
599616069940001536,-164
599616069947689600,650
599616069955377536,1389
599616069963065600,1129
599616069970753664,-44
599616069978441600,-746
599616069986129664,-521
599616069993817728,-274
599616070001505792,-227
599616070009193728,-131
599616070016881792,-105
599616070024569856,-154
599616070032257920,-204
599616070039945856,-274
599616070047633920,-399
599616070055321984,-610
599616070063009920,-734
599616070070697984,-671
599616070078386048,-734
599616070086074112,-943
599616070093762048,-957
599616070101450112,-922
599616070109138176,-1025
599616070116826112,-1082
599616070124514176,-1105
599616070132202240,-1176
599616070139890304,-1218
599616070147578240,-1227
599616070155266304,-1260
599616070162954368,-1321
599616070170642304,-1382
599616070178330368,-1406
599616070186018432,-1411
599616070193706496,-1411
599616070201394432,-1387
599616070209082496,-1361
599616070216770560,-1366
599616070224458496,-1396
599616070232146560,-1434
599616070239834624,-1448
599616070247522602,-1443
599616070255210624,-1443
599616070262898688,-1420
599616070270586624,-1373
599616070278274688,-1342
599616070285962752,-1314
599616070293650816,-1279
599616070301338752,-1251
599616070309026816,-1218
599616070316714880,-1155
599616070324402816,-1094
599616070332090880,-1063
599616070339778944,-1042
599616070347467008,-1025
599616070355154944,-983
599616070362843008,-920
599616070370531072,-861
599616070378219008,-840
599616070385907072,-910
599616070393595136,-922
599616070401283200,-805
599616070408971136,-725
599616070416659200,-737
599616070424347264,-737
599616070432035200,-716
599616070439723264,-725
599616070447411328,-798
599616070455099392,-946
599616070462787328,-1087
599616070470475392,-915
599616070478163456,-169
599616070485851392,817
599616070493539456,969
599616070501227520,-84
599616070508915584,-981
599616070516603520,-882
599616070524291584,-713
599616070531979648,-795
599616070539667584,-678
599616070547355648,-593
599616070555043712,-711
599616070562731776,-680
599616070570419712,-539
599616070578107776,-629
599616070585795840,-746
599616070593483904,-603
599616070601171840,-502
599616070608859904,-561
599616070616547968,-429
599616070624235904,-286
599616070631923968,-448
599616070639612032,-530
599616070647300096,-408
599616070654988032,-514
599616070662676096,-786
599616070670364160,-878
599616070678052096,-856
599616070685740160,-948
599616070693428224,-1133
599616070701116288,-1183
599616070708804224,-1101
599616070716492288,-1115
599616070724180352,-1152
599616070731868288,-1021
599616070739556352,-828
599616070747244416,-798
599616070754932480,-772
599616070762620416,-610
599616070770308480,-556
599616070777996544,-603
599616070785684480,-537
599616070793372544,-413
599616070801060608,-356
599616070808748622,-375
599616070816436224,-359
599616070824123776,-248
599616070831811456,-211
599616070839499008,-298
599616070847186688,-321
599616070854874240,-291
599616070862561920,-326
599616070870249472,-370
599616070877937152,-368
599616070885624704,-361
599616070893312256,-345
599616070900999936,-316
599616070908687488,-314
599616070916375168,-359
599616070924062720,-422
599616070931750400,-443
599616070939437952,-431
599616070947125632,-434
599616070954813184,-450
599616070962500864,-441
599616070970188416,-415
599616070977875968,-410
599616070985563648,-455
599616070993251200,-612
599616071000938880,-753
599616071008626432,-530
599616071016314112,173
599616071024001664,878
599616071031689344,760
599616071039376896,-192
599616071047064448,-868
599616071054752128,-817
599616071062439680,-709
599616071070127360,-763
599616071077814912,-758
599616071085502592,-765
599616071093190144,-824
599616071100877824,-831
599616071108565376,-809
599616071116253056,-838
599616071123940608,-873
599616071131628160,-882
599616071139315840,-882
599616071147003392,-866
599616071154691072,-833
599616071162378624,-786
599616071170066304,-744
599616071177753856,-730
599616071185441536,-718
599616071193129088,-685
599616071200816640,-664
599616071208504320,-676
599616071216191872,-699
599616071223879552,-709
599616071231567104,-716
599616071239254784,-732
599616071246942336,-755
599616071254630016,-758
599616071262317568,-734
599616071270005248,-694
599616071277692800,-662
599616071285380352,-669
599616071293068032,-704
599616071300755584,-716
599616071308443264,-687
599616071316130816,-664
599616071323818496,-636
599616071331506048,-575
599616071339193728,-532
599616071346881280,-516
599616071354568832,-469
599616071362256512,-420
599616071369944120,-420
599616071377632128,-403
599616071385320192,-361
599616071393008128,-375
599616071400696192,-382
599616071408384256,-345
599616071416072320,-298
599616071423760256,-234
599616071431448320,-185
599616071439136384,-145
599616071446824320,-79
599616071454512384,-37
599616071462200448,-58
599616071469888512,-79
599616071477576448,-82
599616071485264512,-138
599616071492952576,-180
599616071500640512,-145
599616071508328576,-126
599616071516016640,-176
599616071523704704,-361
599616071531392640,-659
599616071539080704,-680
599616071546768768,-37
599616071554456704,915
599616071562144768,1105
599616071569832832,77
599616071577520896,-960
599616071585208832,-1035
599616071592896896,-871
599616071600584960,-929
599616071608272896,-896
599616071615960960,-887
599616071623649024,-1000
599616071631337088,-1051
599616071639025024,-1054
599616071646713088,-1112
599616071654401152,-1162
599616071662089216,-1148
599616071669777152,-1159
599616071677465216,-1213
599616071685153280,-1246
599616071692841216,-1265
599616071700529280,-1300
599616071708217344,-1326
599616071715905408,-1333
599616071723593344,-1338
599616071731281408,-1338
599616071738969472,-1335
599616071746657408,-1342
599616071754345472,-1366
599616071762033536,-1406
599616071769721600,-1413
599616071777409536,-1387
599616071785097600,-1359
599616071792785664,-1338
599616071800473600,-1326
599616071808161664,-1317
599616071815849728,-1319
599616071823537792,-1321
599616071831225728,-1300
599616071838913792,-1286
599616071846601856,-1295
599616071854289792,-1274
599616071861977856,-1211
599616071869665920,-1150
599616071877353984,-1131
599616071885041920,-1108
599616071892729984,-1070
599616071900418048,-1049
599616071908105984,-1035
599616071915794048,-1011
599616071923482112,-974
599616071931170144,-943
599616071938858112,-939
599616071946546048,-920
599616071954233856,-871
599616071961921792,-845
599616071969609728,-838
599616071977297536,-828
599616071984985472,-828
599616071992673280,-798
599616072000361216,-701
599616072008049152,-577
599616072015736960,-455
599616072023424896,-347
599616072031112832,-269
599616072038800640,-227
599616072046488576,-206
599616072054176384,-277
599616072061864320,-485
599616072069552256,-485
599616072077240064,176
599616072084928000,1274
599616072092615936,1779
599616072100303744,983
599616072107991680,-157
599616072115679488,-415
599616072123367424,-241
599616072131055360,-258
599616072138743168,-232
599616072146431104,-145
599616072154119040,-145
599616072161806848,-157
599616072169494784,-133
599616072177182592,-105
599616072184870528,-86
599616072192558464,-93
599616072200246272,-84
599616072207934208,-32
599616072215622144,-37
599616072223309952,-84
599616072230997888,-68
599616072238685696,-51
599616072246373632,-61
599616072254061568,-16
599616072261749376,35
599616072269437312,39
599616072277125248,42
599616072284813056,53
599616072292500992,42
599616072300188800,28
599616072307876736,61
599616072315564672,105
599616072323252480,70
599616072330940416,58
599616072338628352,110
599616072346316160,65
599616072354004096,9
599616072361692032,30
599616072369379840,25
599616072377067776,0
599616072384755584,-32
599616072392443520,-75
599616072400131456,-65
599616072407819264,4
599616072415507200,14
599616072423195136,-70
599616072430882944,-56
599616072438570880,9
599616072446258688,-58
599616072453946624,-115
599616072461634560,-75
599616072469322368,-79
599616072477010304,-133
599616072484698240,-143
599616072492385990,-112
599616072500073856,-89
599616072507761664,-70
599616072515449344,-75
599616072523137152,-136
599616072530824832,-201
599616072538512640,-194
599616072546200320,-122
599616072553888128,-119
599616072561575808,-204
599616072569263616,-223
599616072576951296,-218
599616072584639104,-333
599616072592326784,-516
599616072600014592,-619
599616072607702400,-333
599616072615390080,551
599616072623077888,1425
599616072630765568,1213
599616072638453376,53
599616072646141056,-615
599616072653828864,-455
599616072661516544,-316
599616072669204352,-321
599616072676892032,-244
599616072684579840,-232
599616072692267520,-251
599616072699955328,-206
599616072707643136,-187
599616072715330816,-194
599616072723018624,-176
599616072730706304,-169
599616072738394112,-169
599616072746081792,-136
599616072753769600,-110
599616072761457280,-98
599616072769145088,-91
599616072776832768,-93
599616072784520576,-86
599616072792208256,-84
599616072799896064,-107
599616072807583872,-133
599616072815271552,-140
599616072822959360,-166
599616072830647040,-223
599616072838334848,-260
599616072846022528,-277
599616072853710336,-288
599616072861398016,-302
