599667194589781376,-7
599667194597468928,-21
599667194605156608,-80
599667194612844160,-275
599667194620531840,-369
599667194628219392,56
599667194635907072,951
599667194643594624,1644
599667194651282304,1399
599667194658969856,452
599667194666657408,-115
599667194674345088,-115
599667194682032640,-127
599667194689720320,-157
599667194697407872,-58
599667194705095552,-11
599667194712783104,-58
599667194720470784,-61
599667194728158336,-28
599667194735846016,-23
599667194743533568,-21
599667194751221120,-30
599667194758908800,-37
599667194766596352,16
599667194774284032,40
599667194781971584,7
599667194789659264,2
599667194797346816,35
599667194805034496,65
599667194812722048,49
599667194820409600,30
599667194828097280,65
599667194835784832,91
599667194843472512,82
599667194851160064,101
599667194858847744,127
599667194866535296,141
599667194874222976,174
599667194881910528,190
599667194889598208,197
599667194897285760,207
599667194904973312,230
599667194912660992,301
599667194920348544,327
599667194928036224,275
599667194935723776,242
599667194943411456,216
599667194951099008,141
599667194958786688,32
599667194966474240,-44
599667194974161792,-89
599667194981849472,-136
599667194989537024,-179
599667194997224704,-176
599667195004912256,-162
599667195012599936,-181
599667195020287488,-179
599667195027975168,-150
599667195035662720,-157
599667195043350400,-162
599667195051037952,-164
599667195058725504,-176
599667195066413184,-124
599667195074100736,-89
599667195081788416,-129
599667195089475968,-134
599667195097163648,-94
599667195104851200,-91
599667195112538880,-106
599667195120226432,-89
599667195127913984,-63
599667195135601664,-73
599667195143289266,-80
599667195150976768,-47
599667195158664320,-35
599667195166352000,-58
599667195174039552,-56
599667195181727232,-42
599667195189414784,-32
599667195197102464,-25
599667195204790016,-32
599667195212477696,-44
599667195220165248,-40
599667195227852928,-25
599667195235540480,-28
599667195243228032,-32
599667195250915712,-7
599667195258603264,0
599667195266290944,-28
599667195273978496,-32
599667195281666176,-4
599667195289353728,4
599667195297041408,-14
599667195304728960,-23
599667195312416512,-23
599667195320104192,-11
599667195327791744,9
599667195335479424,16
599667195343166976,11
599667195350854656,21
599667195358542208,35
599667195366229888,32
599667195373917440,23
599667195381605120,4
599667195389292672,-9
599667195396980224,-7
599667195404667904,-11
599667195412355456,0
599667195420043136,21
599667195427730688,9
599667195435418368,-2
599667195443105920,-14
599667195450793600,-122
599667195458481152,-303
599667195466168704,-278
599667195473856384,207
599667195481543936,1055
599667195489231616,1672
599667195496919168,1328
599667195504606848,332
599667195512294400,-157
599667195519982080,-91
599667195527669632,-113
599667195535357312,-113
599667195543044864,-18
599667195550732416,-47
599667195558420096,-84
599667195566107648,-40
599667195573795328,-4
599667195581482880,-9
599667195589170560,-21
599667195596858112,-30
599667195604545792,-9
599667195612233344,16
599667195619920896,14
599667195627608576,14
599667195635296128,37
599667195642983808,44
599667195650671360,25
599667195658359040,44
599667195666046592,70
599667195673734272,63
599667195681421824,89
599667195689109504,127
599667195696797056,103
599667195704484772,96
599667195712172672,139
599667195719860608,171
599667195727548416,186
599667195735236352,209
599667195742924288,259
599667195750612096,294
599667195758300032,285
599667195765987840,287
599667195773675776,313
599667195781363712,296
599667195789051520,207
599667195796739456,89
599667195804427392,25
599667195812115200,7
599667195819803136,-54
599667195827490944,-136
599667195835178880,-150
599667195842866816,-146
599667195850554624,-162
599667195858242560,-143
599667195865930496,-153
599667195873618304,-174
599667195881306240,-129
599667195888994048,-110
599667195896681984,-131
599667195904369920,-106
599667195912057728,-94
599667195919745664,-143
599667195927433600,-134
599667195935121408,-51
599667195942809344,-56
599667195950497152,-106
599667195958185088,-87
599667195965873024,-75
599667195973560832,-84
599667195981248768,-51
599667195988936704,-40
599667195996624512,-63
599667196004312448,-58
599667196012000256,-32
599667196019688192,-37
599667196027376128,-51
599667196035063936,-54
599667196042751872,-28
599667196050439808,-11
599667196058127616,-30
599667196065815552,-32
599667196073503360,-21
599667196081191296,-32
599667196088879232,-35
599667196096567040,-21
599667196104254976,-14
599667196111942912,-21
599667196119630720,-18
599667196127318656,-14
599667196135006592,-21
599667196142694400,-18
599667196150382336,-18
599667196158070144,-14
599667196165758080,11
599667196173446016,9
599667196181133824,-14
599667196188821760,-7
599667196196509696,4
599667196204197504,0
599667196211885440,-4
599667196219573248,-2
599667196227261184,4
599667196234949120,-4
599667196242636928,-4
599667196250324864,25
599667196258012800,21
599667196265700618,2
599667196273388160,30
599667196281075712,54
599667196288763264,54
599667196296450816,56
599667196304138368,44
599667196311825920,32
599667196319513344,35
599667196327200896,21
599667196334888448,11
599667196342576000,21
599667196350263552,21
599667196357951104,16
599667196365638656,23
599667196373326208,25
599667196381013760,21
599667196388701312,-2
599667196396388736,-113
599667196404076288,-292
599667196411763840,-266
599667196419451392,252
599667196427138944,1130
599667196434826496,1708
599667196442514048,1298
599667196450201600,315
599667196457889152,-129
599667196465576704,-63
599667196473264256,-89
599667196480951680,-101
599667196488639232,-18
599667196496326784,-32
599667196504014336,-61
599667196511701888,-23
599667196519389440,-14
599667196527076992,-30
599667196534764544,-11
599667196542452096,7
599667196550139648,-9
599667196557827200,-7
599667196565514624,37
599667196573202176,16
599667196580889728,7
599667196588577280,63
599667196596264832,70
599667196603952384,61
599667196611639936,65
599667196619327488,42
599667196627015040,65
599667196634702592,113
599667196642390016,98
599667196650077568,117
599667196657765120,169
599667196665452672,160
599667196673140224,162
599667196680827776,219
599667196688515328,249
599667196696202880,237
599667196703890432,249
599667196711577984,296
599667196719265536,313
599667196726952960,289
599667196734640512,207
599667196742328064,115
599667196750015616,82
599667196757703168,21
599667196765390720,-51
599667196773078272,-80
599667196780765824,-110
599667196788453376,-146
599667196796140928,-146
599667196803828352,-157
599667196811515904,-164
599667196819203456,-124
599667196826891033,-122
599667196834578816,-127
599667196842266624,-84
599667196849954432,-77
599667196857642240,-98
599667196865330048,-103
599667196873017856,-115
599667196880705792,-82
599667196888393600,-63
599667196896081408,-87
599667196903769216,-63
599667196911457024,-47
599667196919144832,-68
599667196926832640,-56
599667196934520448,-30
599667196942208256,-63
599667196949896064,-68
599667196957583872,-11
599667196965271680,-18
599667196972959616,-25
599667196980647424,7
599667196988335232,-7
599667196996023040,-28
599667197003710848,-4
599667197011398656,7
599667197019086464,-4
599667197026774272,-11
599667197034462080,-16
599667197042149888,-30
599667197049837696,-32
599667197057525504,21
599667197065213440,37
599667197072901248,-11
599667197080589056,-14
599667197088276864,7
599667197095964672,-14
599667197103652480,-2
599667197111340288,37
599667197119028096,7
599667197126715904,-11
599667197134403712,-9
599667197142091520,-9
599667197149779328,49
599667197157467264,32
599667197165155072,-11
599667197172842880,47
599667197180530688,16
599667197188218496,-25
599667197195906304,75
599667197203594112,49
599667197211281920,-21
599667197218969728,61
599667197226657536,49
599667197234345344,-9
599667197242033152,91
599667197249721088,146
599667197257408896,42
599667197265096704,-4
599667197272784512,40
599667197280472320,37
599667197288160128,40
599667197295847936,65
599667197303535744,21
599667197311223552,2
599667197318911360,58
599667197326599168,40
599667197334286976,-25
599667197341974912,-11
599667197349662720,-91
599667197357350528,-313
599667197365038336,-193
599667197372726144,445
599667197380413952,1283
599667197388101796,1741
599667197395789312,1130
599667197403476864,96
599667197411164544,-155
599667197418852096,-23
599667197426539776,-106
599667197434227328,-101
599667197441915008,-30
599667197449602560,-25
599667197457290240,25
599667197464977792,21
599667197472665472,-61
599667197480353024,-54
599667197488040576,49
599667197495728256,65
599667197503415808,-14
599667197511103488,7
599667197518791040,68
599667197526478720,18
599667197534166272,-11
599667197541853952,73
599667197549541504,127
599667197557229056,54
599667197564916736,14
599667197572604288,101
599667197580291968,129
599667197587979520,91
599667197595667200,146
599667197603354752,186
599667197611042432,129
599667197618729984,117
599667197626417664,230
599667197634105216,299
599667197641792768,228
599667197649480448,247
599667197657168000,346
599667197664855680,315
599667197672543232,270
599667197680230912,310
599667197687918464,247
599667197695606144,106
599667197703293696,80
599667197710981248,42
599667197718668928,-73
599667197726356480,-139
599667197734044160,-150
599667197741731712,-134
599667197749419392,-117
599667197757106944,-179
599667197764794624,-202
599667197772482176,-96
599667197780169856,-37
599667197787857408,-91
599667197795544960,-122
599667197803232640,-89
599667197810920192,-89
599667197818607872,-131
599667197826295424,-120
599667197833983104,-47
599667197841670656,-51
599667197849358336,-110
599667197857045888,-73
599667197864733440,-35
599667197872421120,-98
599667197880108672,-103
599667197887796352,-7
599667197895483904,21
599667197903171584,-35
599667197910859136,-40
599667197918546816,-18
599667197926234368,-47
599667197933922048,-42
599667197941609600,-9
599667197949297298,-16
599667197956984832,14
599667197964672384,16
599667197972360064,-49
599667197980047616,-30
599667197987735296,7
599667197995422848,-40
599667198003110528,-25
599667198010798080,40
599667198018485760,18
599667198026173312,0
599667198033860992,30
599667198041548544,-18
599667198049236096,-44
599667198056923776,56
599667198064611328,61
599667198072299008,-30
599667198079986560,-16
599667198087674240,42
599667198095361792,40
599667198103049472,14
599667198110737024,-18
599667198118424576,-2
599667198126112256,40
599667198133799808,32
599667198141487488,35
599667198149175040,35
599667198156862720,42
599667198164550272,101
599667198172237952,82
599667198179925504,16
599667198187613184,21
599667198195300736,58
599667198202988288,32
599667198210675968,-18
599667198218363520,-7
599667198226051200,18
599667198233738752,42
599667198241426432,58
599667198249113984,23
599667198256801664,11
599667198264489216,-63
599667198272176768,-294
599667198279864448,-310
599667198287552000,245
599667198295239680,1173
599667198302927232,1722
599667198310614912,1232
599667198318302464,249
599667198325990144,-110
599667198333677696,-14
599667198341365376,-103
599667198349052928,-110
599667198356740480,28
599667198364428160,-25
599667198372115712,-98
599667198379803392,-11
599667198387490944,44
599667198395178624,-11
599667198402866176,-28
599667198410553856,47
599667198418241408,73
599667198425928960,16
599667198433616640,-11
599667198441304192,9
599667198448991872,63
599667198456679424,115
599667198464367104,65
599667198472054656,23
599667198479742336,94
599667198487429888,120
599667198495117568,91
599667198502805120,120
599667198510492800,150
599667198518180352,160
599667198525867904,188
599667198533555456,193
599667198541243008,179
599667198548930560,240
599667198556618112,308
599667198564305536,261
599667198571993088,242
599667198579680640,369
599667198587368192,431
599667198595055744,313
599667198602743296,188
599667198610430848,150
599667198618118400,124
599667198625805952,28
599667198633493504,-77
599667198641180928,-148
599667198648868480,-179
599667198656556032,-129
599667198664243584,-115
599667198671931136,-153
599667198679618688,-122
599667198687306240,-117
599667198694993792,-186
599667198702681344,-174
599667198710368896,-70
599667198718056448,-49
599667198725743872,-120
599667198733431424,-124
599667198741118976,-84
599667198748806528,-103
599667198756494080,-120
599667198764181632,-73
599667198771869184,-56
599667198779556736,-113
599667198787244288,-87
599667198794931840,18
599667198802619392,0
599667198810306816,-70
599667198817994368,-35
599667198825681920,-2
599667198833369472,-56
599667198841057024,-58
599667198848744576,7
599667198856432128,-2
599667198864119680,-49
599667198871807232,-11
599667198879494784,37
599667198887182208,7
599667198894869760,-35
599667198902557312,-18
599667198910244864,11
599667198917932416,11
599667198925619968,-16
599667198933307520,-30
599667198940995072,9
599667198948682624,37
599667198956370176,-47
599667198964057728,-84
599667198971745152,40
599667198979432704,103
599667198987120256,14
599667198994807808,-35
599667199002495360,14
599667199010182912,44
599667199017870464,16
599667199025558016,14
599667199033245568,44
599667199040933120,37
599667199048620544,32
599667199056308096,82
599667199063995648,82
599667199071683215,-7
599667199079370880,-28
599667199087058560,49
599667199094746240,40
599667199102433920,-23
599667199110121600,18
599667199117809280,61
599667199125496960,4
599667199133184640,-35
599667199140872320,11
599667199148560000,9
599667199156247680,-183
599667199163935360,-365
599667199171623040,-68
599667199179310720,768
599667199186998400,1590
599667199194686080,1597
599667199202373760,704
599667199210061440,-56
599667199217749120,-134
599667199225436800,-117
599667199233124480,-141
599667199240812160,9
599667199248499840,42
599667199256187520,-77
599667199263875200,-84
599667199271562880,-2
599667199279250560,47
599667199286938240,28
599667199294625920,2
599667199302313600,11
599667199310001280,14
599667199317688960,21
599667199325376640,44
599667199333064320,49
599667199340752000,56
599667199348439680,77
599667199356127360,68
599667199363815040,65
599667199371502720,106
599667199379190400,120
599667199386878080,103
599667199394565760,113
599667199402253440,124
599667199409941120,157
599667199417628800,221
599667199425316480,214
599667199433004160,202
599667199440691840,266
599667199448379520,296
599667199456067200,289
599667199463754880,339
599667199471442560,362
599667199479130240,306
599667199486817920,252
599667199494505600,193
599667199502193280,94
599667199509880960,-14
599667199517568640,-80
599667199525256320,-87
599667199532944000,-96
599667199540631680,-146
599667199548319360,-174
599667199556007040,-164
599667199563694720,-148
599667199571382400,-143
599667199579070080,-150
599667199586757760,-167
599667199594445440,-162
599667199602133120,-101
599667199609820800,-77
599667199617508480,-120
599667199625196160,-131
599667199632883804,-120
599667199640571392,-87
599667199648258944,-49
599667199655946624,-75
599667199663634176,-103
599667199671321856,-73
599667199679009408,-40
599667199686697088,-56
599667199694384640,-80
599667199702072320,-65
599667199709759872,-30
599667199717447552,-23
599667199725135104,-58
599667199732822656,-47
599667199740510336,-2
599667199748197888,0
599667199755885568,9
599667199763573120,-2
599667199771260800,-37
599667199778948352,-30
599667199786636032,-23
599667199794323584,-51
599667199802011136,-44
599667199809698816,16
599667199817386368,40
599667199825074048,0
599667199832761600,-11
599667199840449280,-2
599667199848136832,-18
599667199855824512,-11
599667199863512064,14
599667199871199744,7
599667199878887296,2
599667199886574848,2
599667199894262528,0
599667199901950080,2
599667199909637760,23
599667199917325312,37
599667199925012992,2
599667199932700544,0
599667199940388224,35
599667199948075776,28
599667199955763328,47
599667199963451008,73
599667199971138560,44
599667199978826240,21
599667199986513792,21
599667199994201472,23
599667200001889024,47
599667200009576704,42
599667200017264256,2
599667200024951936,18
599667200032639488,61
599667200040327040,42
599667200048014720,9
599667200055702272,16
599667200063389952,9
599667200071077504,-110
599667200078765184,-306
599667200086452736,-242
599667200094140416,343
599667200101827968,1227
599667200109515520,1712
599667200117203200,1182
599667200124890752,219
599667200132578432,-122
599667200140265984,-58
599667200147953664,-106
599667200155641216,-68
599667200163328896,30
599667200171016448,-7
599667200178704128,-40
599667200186391680,-11
599667200194079306,-9
599667200201766912,-2
599667200209454464,30
599667200217142144,30
599667200224829696,14
599667200232517376,28
599667200240204928,42
599667200247892608,40
599667200255580160,63
599667200263267840,77
599667200270955392,61
599667200278643072,68
599667200286330624,91
599667200294018176,113
599667200301705856,129
599667200309393408,134
599667200317081088,98
599667200324768640,101
599667200332456320,223
599667200340143872,294
599667200347831552,237
599667200355519104,237
599667200363206656,294
599667200370894336,306
599667200378581888,329
599667200386269568,365
599667200393957120,355
599667200401644800,313
599667200409332352,252
599667200417020032,160
599667200424707584,63
599667200432395264,-11
599667200440082816,-68
599667200447770368,-108
599667200455458048,-131
599667200463145600,-148
599667200470833280,-157
599667200478520832,-157
599667200486208512,-150
599667200493896064,-141
599667200501583744,-131
599667200509271296,-127
599667200516958848,-127
599667200524646528,-124
599667200532334080,-122
599667200540021760,-120
599667200547709312,-115
599667200555396992,-115
599667200563084544,-108
599667200570772224,-91
599667200578459776,-65
599667200586147456,-16
599667200593835008,42
599667200601522560,32
599667200609210240,-87
599667200616897792,-230
599667200624585472,-329
599667200632273024,-398
599667200639960704,-461
599667200647648256,-499
599667200655335936,-504
599667200663023488,-482
599667200670711040,-452
599667200678398720,-414
599667200686086272,-362
599667200693773952,-308
599667200701461504,-256
599667200709149184,-204
599667200716836736,-155
599667200724524416,-115
599667200732211968,-80
599667200739899648,-44
599667200747587200,-18
599667200755274808,-2
599667200762962432,11
599667200770650112,25
599667200778337792,40
599667200786025472,51
599667200793713152,61
599667200801400832,73
599667200809088512,80
599667200816776192,87
599667200824463872,98
599667200832151552,108
599667200839839232,117
599667200847526912,117
599667200855214592,115
599667200862902272,129
599667200870589952,153
599667200878277632,169
599667200885965312,179
599667200893652992,186
599667200901340672,169
599667200909028352,143
599667200916716032,131
599667200924403712,134
599667200932091392,136
599667200939779072,134
599667200947466752,131
599667200955154432,129
599667200962842112,124
599667200970529792,122
599667200978217472,120
599667200985905152,82
599667200993592832,-65
599667201001280512,-254
599667201008968192,-155
599667201016655872,468
599667201024343552,1366
599667201032031232,1764
599667201039718912,1109
599667201047406592,143
599667201055094272,-139
599667201062781952,-65
599667201070469632,-106
599667201078157312,-80
599667201085844992,-23
599667201093532672,-58
599667201101220352,-70
599667201108908032,-37
599667201116595712,-32
599667201124283392,-32
599667201131971072,-16
599667201139658752,-4
599667201147346432,0
599667201155034112,9
599667201162721792,16
599667201170409472,23
599667201178097152,32
599667201185784832,40
599667201193472512,51
599667201201160192,61
599667201208847872,70
599667201216535552,82
599667201224223232,94
599667201231910912,106
599667201239598592,122
599667201247286272,136
599667201254973952,155
599667201262661632,179
599667201270349312,200
599667201278036992,223
599667201285724672,247
599667201293412352,270
599667201301100032,289
599667201308787712,306
599667201316475393,308
599667201324162944,282
599667201331850496,223
599667201339538048,143
599667201347225600,63
599667201354913152,-4
599667201362600704,-56
599667201370288128,-94
599667201377975680,-117
599667201385663232,-127
599667201393350784,-131
599667201401038336,-129
599667201408725888,-124
599667201416413440,-117
599667201424100992,-110
599667201431788544,-103
599667201439476096,-98
599667201447163520,-94
599667201454851072,-91
599667201462538624,-89
599667201470226176,-82
599667201477913728,-77
599667201485601280,-75
599667201493288832,-73
599667201500976384,-68
599667201508663936,-63
599667201516351488,-58
599667201524039040,-54
599667201531726464,-49
599667201539414016,-44
599667201547101568,-37
599667201554789120,-32
599667201562476672,-30
599667201570164224,-28
599667201577851776,-25
599667201585539328,-23
599667201593226880,-21
599667201600914432,-18
599667201608601984,-18
599667201616289408,-18
599667201623976960,-16
599667201631664512,-16
599667201639352064,-11
599667201647039616,-11
599667201654727168,-9
599667201662414720,-9
599667201670102272,-7
599667201677789824,-4
599667201685477376,-2
599667201693164800,0
599667201700852352,0
599667201708539904,2
599667201716227456,2
599667201723915008,4
599667201731602560,4
599667201739290112,7
599667201746977664,7
599667201754665216,9
599667201762352768,9
599667201770040320,14
599667201777727744,14
599667201785415296,9
599667201793102848,11
599667201800790400,25
599667201808477952,44
599667201816165504,54
599667201823853056,61
599667201831540608,63
599667201839228160,47
599667201846915712,21
599667201854603136,16
599667201862290688,21
599667201869978240,21
599667201877665808,18
599667201885353344,18
599667201893040896,21
599667201900728576,21
599667201908416128,23
599667201916103808,23
599667201923791360,-28
599667201931479040,-190
599667201939166592,-325
599667201946854272,-91
599667201954541824,629
599667201962229504,1460
599667201969917056,1627
599667201977604608,822
599667201985292288,-14
599667201992979840,-146
599667202000667520,-77
599667202008355072,-110
599667202016042752,-47
599667202023730304,-4
599667202031417984,-49
599667202039105536,-47
599667202046793088,-16
599667202054480768,-18
599667202062168320,-16
599667202069856000,0
599667202077543552,4
599667202085231232,9
599667202092918784,21
599667202100606464,28
599667202108294016,32
599667202115981696,40
599667202123669248,47
599667202131356800,56
599667202139044480,65
599667202146732032,75
599667202154419712,87
599667202162107264,98
599667202169794944,110
599667202177482496,122
599667202185170176,141
599667202192857728,162
599667202200545280,186
599667202208232960,212
599667202215920512,235
599667202223608192,259
599667202231295744,285
599667202238983424,303
599667202246670976,315
599667202254358656,308
599667202262046208,273
599667202269733888,207
599667202277421440,122
599667202285108992,40
599667202292796672,-25
599667202300484224,-73
599667202308171904,-108
599667202315859456,-131
599667202323547136,-141
599667202331234688,-141
599667202338922368,-139
599667202346609920,-136
599667202354297472,-129
599667202361985152,-120
599667202369672704,-113
599667202377360384,-108
599667202385047936,-103
599667202392735616,-98
599667202400423168,-94
599667202408110848,-87
599667202415798400,-80
599667202423486080,-73
599667202431173632,-68
599667202438861314,-61
599667202446549248,-51
599667202454237184,-47
599667202461924992,-40
599667202469612928,-32
599667202477300864,-28
599667202484988672,-23
599667202492676608,-18
599667202500364416,-14
599667202508052352,-11
599667202515740288,-9
599667202523428096,-7
599667202531116032,-7
599667202538803968,-4
599667202546491776,-2
599667202554179712,2
599667202561867520,4
599667202569555456,4
599667202577243392,2
599667202584931200,7
599667202592619136,9
599667202600307072,11
599667202607994880,16
599667202615682816,18
599667202623370624,16
599667202631058560,11
599667202638746496,14
599667202646434304,16
599667202654122240,18
599667202661810176,16
599667202669497984,25
599667202677185920,47
599667202684873728,58
599667202692561664,68
599667202700249600,75
599667202707937408,63
599667202715625344,40
599667202723313280,28
599667202731001088,32
599667202738689024,35
599667202746376832,35
599667202754064768,37
599667202761752704,40
599667202769440512,40
599667202777128448,40
599667202784816384,37
599667202792504192,9
599667202800192128,-124
599667202807879936,-299
599667202815567872,-171
599667202823255808,473
599667202830943616,1338
599667202838631552,1675
599667202846319488,1008
599667202854007296,68
599667202861695232,-204
599667202869383168,-117
599667202877070976,-117
599667202884758912,-42
599667202892446720,37
599667202900134656,4
599667202907822592,-7
599667202915510400,25
599667202923198336,30
599667202930886272,23
599667202938574080,37
599667202946262016,51
599667202953949824,56
599667202961637760,63
599667202969325696,70
599667202977013504,75
599667202984701440,84
599667202992389376,91
599667203000077160,103
599667203007764736,113
599667203015452288,122
599667203023139840,129
599667203030827392,143
599667203038514944,160
599667203046202496,174
599667203053889920,188
599667203061577472,209
599667203069265024,230
599667203076952576,254
599667203084640128,282
599667203092327680,308
599667203100015232,329
599667203107702784,343
599667203115390336,348
599667203123077888,336
599667203130765312,296
599667203138452864,226
599667203146140416,136
599667203153827968,49
599667203161515520,-23
599667203169203072,-77
599667203176890624,-115
599667203184578176,-136
599667203192265728,-148
599667203199953280,-155
599667203207640832,-153
599667203215328256,-146
599667203223015808,-141
599667203230703360,-139
599667203238390912,-131
599667203246078464,-122
599667203253766016,-115
599667203261453568,-113
599667203269141120,-106
599667203276828672,-94
599667203284516224,-84
599667203292203776,-80
599667203299891200,-70
599667203307578752,-63
599667203315266304,-54
599667203322953856,-44
599667203330641408,-37
599667203338328960,-35
599667203346016512,-30
599667203353704064,-25
599667203361391616,-23
599667203369079168,-23
599667203376766592,-21
599667203384454144,-18
599667203392141696,-21
599667203399829248,-18
599667203407516800,-14
599667203415204352,-14
599667203422891904,-16
599667203430579456,-11
599667203438267008,-9
599667203445954560,-11
599667203453642112,-9
599667203461329536,-4
599667203469017088,-4
599667203476704640,-4
599667203484392192,-4
599667203492079744,-4
599667203499767296,-4
599667203507454848,-4
599667203515142400,-7
599667203522829952,-11
599667203530517504,-2
599667203538204928,21
599667203545892480,37
599667203553580032,44
599667203561267575,54
599667203568955392,47
599667203576643200,23
599667203584331008,9
599667203592018816,14
599667203599706624,16
599667203607394432,16
599667203615082368,16
599667203622770176,18
599667203630457984,21
599667203638145792,21
599667203645833600,23
599667203653521408,7
599667203661209216,-98
599667203668897024,-299
599667203676584832,-306
599667203684272640,197
599667203691960448,1086
599667203699648256,1693
599667203707336192,1302
599667203715024000,282
599667203722711808,-216
599667203730399616,-150
599667203738087424,-136
599667203745775232,-103
599667203753463040,11
599667203761150848,4
599667203768838656,-32
599667203776526464,0
599667203784214272,16
599667203791902080,7
599667203799590016,18
599667203807277824,32
599667203814965632,35
599667203822653440,42
599667203830341248,54
599667203838029056,61
599667203845716864,65
599667203853404672,75
599667203861092480,82
599667203868780288,89
599667203876468096,98
599667203884155904,108
599667203891843840,120
599667203899531648,131
599667203907219456,146
599667203914907264,160
599667203922595072,176
599667203930282880,197
599667203937970688,221
599667203945658496,245
599667203953346304,263
599667203961034112,285
599667203968721920,303
599667203976409728,315
599667203984097664,313
599667203991785472,285
599667203999473280,219
599667204007161088,131
599667204014848896,47
599667204022536704,-28
599667204030224512,-84
599667204037912320,-122
599667204045600128,-146
599667204053287936,-160
599667204060975744,-164
599667204068663552,-162
599667204076351488,-160
599667204084039296,-153
599667204091727104,-148
599667204099414912,-143
599667204107102720,-136
599667204114790528,-131
599667204122478338,-127
599667204130165888,-120
599667204137853440,-113
599667204145541120,-106
599667204153228672,-101
599667204160916352,-91
599667204168603904,-82
599667204176291584,-70
599667204183979136,-65
599667204191666816,-61
599667204199354368,-54
599667204207042048,-49
599667204214729600,-44
599667204222417152,-40
599667204230104832,-37
599667204237792384,-37
599667204245480064,-37
599667204253167616,-35
599667204260855296,-35
599667204268542848,-35
599667204276230528,-35
599667204283918080,-35
599667204291605632,-32
599667204299293312,-30
599667204306980864,-28
599667204314668544,-23
599667204322356096,-21
599667204330043776,-16
599667204337731328,-14
599667204345419008,-14
599667204353106560,-11
599667204360794240,-9
599667204368481792,-9
599667204376169344,-7
599667204383857024,-7
599667204391544576,-4
599667204399232256,-2
599667204406919808,0
599667204414607488,0
599667204422295040,0
599667204429982720,0
599667204437670272,0
599667204445357824,0
599667204453045504,-2
599667204460733056,-2
599667204468420736,16
599667204476108288,37
599667204483795968,44
599667204491483520,51
599667204499171200,54
599667204506858752,35
599667204514546432,11
599667204522233984,7
599667204529921536,11
599667204537609216,11
599667204545296768,11
599667204552984448,11
599667204560672000,11
599667204568359680,11
599667204576047232,14
599667204583734912,9
599667204591422464,-47
599667204599110016,-216
599667204606797696,-351
599667204614485248,-94
599667204622172928,666
599667204629860480,1505
599667204637548160,1632
599667204645235712,798
599667204652923392,-49
599667204660610944,-190
599667204668298624,-115
599667204675986176,-131
599667204683673840,-58
599667204691361408,-14
599667204699048960,-56
599667204706736640,-54
599667204714424192,-23
599667204722111872,-23
599667204729799424,-21
599667204737487104,-9
599667204745174656,-2
599667204752862336,4
599667204760549888,14
599667204768237440,23
599667204775925120,30
599667204783612672,37
599667204791300352,47
599667204798987904,56
599667204806675584,63
599667204814363136,75
599667204822050816,87
599667204829738368,101
599667204837426048,117
599667204845113600,131
599667204852801152,148
599667204860488832,167
599667204868176384,186
599667204875864064,209
599667204883551616,233
599667204891239296,254
599667204898926848,275
599667204906614528,294
599667204914302080,303
599667204921989632,294
599667204929677312,261
599667204937364864,193
599667204945052544,106
599667204952740096,23
599667204960427776,-44
599667204968115328,-98
599667204975803008,-136
599667204983490560,-157
599667204991178240,-167
599667204998865792,-171
599667205006553344,-169
599667205014241024,-164
599667205021928576,-157
599667205029616256,-150
599667205037303808,-143
599667205044991488,-139
599667205052679040,-131
599667205060366720,-127
599667205068054272,-122
599667205075741824,-115
599667205083429504,-108
599667205091117056,-101
599667205098804736,-94
599667205106492288,-87
599667205114179968,-80
599667205121867520,-73
599667205129555200,-68
599667205137242752,-63
599667205144930432,-56
599667205152617984,-49
599667205160305536,-47
599667205167993216,-42
599667205175680768,-37
599667205183368448,-35
599667205191056000,-35
599667205198743680,-32
599667205206431232,-30
599667205214118912,-30
599667205221806464,-30
599667205229494016,-25
599667205237181696,-23
599667205244869338,-21
599667205252557312,-18
599667205260245248,-18
599667205267933184,-16
599667205275621248,-14
599667205283309184,-11
599667205290997120,-9
599667205298685056,-7
599667205306372992,-4
599667205314060928,-7
599667205321748992,-2
599667205329436928,2
599667205337124864,9
599667205344812800,9
599667205352500736,9
599667205360188672,9
599667205367876736,11
599667205375564672,14
599667205383252608,18
599667205390940544,21
599667205398628480,18
599667205406316416,18
599667205414004480,18
599667205421692416,21
599667205429380352,23
599667205437068288,23
599667205444756224,23
599667205452444160,23
599667205460132224,25
599667205467820160,25
599667205475508096,25
599667205483196032,28
599667205490883968,28
599667205498572032,28
599667205506259968,28
599667205513947904,30
599667205521635840,32
599667205529323776,30
599667205537011712,30
599667205544699776,32
599667205552387712,30
599667205560075648,32
599667205567763584,35
599667205575451520,35
599667205583139456,32
599667205590827520,32
599667205598515456,35
599667205606203392,35
599667205613891328,32
599667205621579264,35
599667205629267200,35
599667205636955264,35
599667205644643200,35
599667205652331136,37
599667205660019072,35
599667205667707008,35
599667205675394944,35
599667205683083008,32
599667205690770944,25
599667205698458880,25
599667205706146816,44
599667205713834752,63
599667205721522816,68
599667205729210752,73
599667205736898688,75
599667205744586624,54
599667205752274560,28
599667205759962496,25
599667205767650560,32
599667205775338496,28
599667205783026432,25
599667205790714368,30
599667205798402304,30
599667205806090275,28
599667205813777792,25
599667205821465344,9
599667205829152896,-103
599667205836840448,-296
599667205844528000,-285
599667205852215552,240
599667205859902976,1135
599667205867590528,1748
599667205875278080,1380
599667205882965632,358
599667205890653184,-179
599667205898340736,-129
599667205906028288,-108
599667205913715840,-91
599667205921403392,-4
599667205929090944,-9
599667205936778368,-44
599667205944465920,-16
599667205952153472,0
599667205959841024,-7
599667205967528576,2
599667205975216128,16
599667205982903680,18
599667205990591232,25
599667205998278784,35
599667206005966336,40
599667206013653888,47
599667206021341312,56
599667206029028864,63
599667206036716416,68
599667206044403968,77
599667206052091520,89
599667206059779072,98
599667206067466624,110
599667206075154176,122
599667206082841728,134
599667206090529280,148
599667206098216832,164
599667206105904256,183
599667206113591808,202
599667206121279360,221
599667206128966912,237
599667206136654464,254
599667206144342016,270
599667206152029568,280
599667206159717120,280
599667206167404672,259
599667206175092224,212
599667206182779648,143
599667206190467200,68
599667206198154752,0
599667206205842304,-54
599667206213529856,-96
599667206221217408,-122
599667206228904960,-141
599667206236592512,-148
599667206244280064,-148
599667206251967616,-143
599667206259655168,-141
599667206267342592,-136
599667206275030144,-129
599667206282717696,-122
599667206290405248,-113
599667206298092800,-106
599667206305780352,-98
599667206313467904,-94
599667206321155456,-87
599667206328843008,-80
599667206336530560,-70
599667206344217984,-58
599667206351905536,-51
599667206359593088,-44
599667206367280690,-42
599667206374968448,-35
599667206382656256,-30
599667206390343936,-25
599667206398031744,-23
599667206405719424,-21
599667206413407232,-21
599667206421094912,-18
599667206428782720,-16
599667206436470400,-16
599667206444158208,-16
599667206451845888,-14
599667206459533696,-14
599667206467221376,-9
599667206474909184,-7
599667206482596992,-7
599667206490284672,-7
599667206497972480,-4
599667206505660160,-4
599667206513347968,-4
599667206521035648,-2
599667206528723456,-2
599667206536411136,-2
599667206544098944,0
599667206551786624,2
599667206559474432,4
599667206567162112,7
599667206574849920,7
599667206582537728,9
599667206590225408,9
599667206597913216,11
599667206605600896,14
599667206613288704,14
599667206620976384,16
599667206628664192,16
599667206636351872,18
599667206644039680,21
599667206651727360,21
599667206659415168,23
599667206667102848,23
599667206674790656,21
599667206682478464,23
599667206690166144,25
599667206697853952,28
599667206705541632,28
599667206713229440,28
599667206720917120,28
599667206728604928,28
599667206736292608,28
599667206743980416,30
599667206751668096,30
599667206759355904,30
599667206767043584,30
599667206774731392,30
599667206782419200,32
599667206790106880,32
599667206797794688,30
599667206805482368,30
599667206813170176,30
599667206820857856,30
599667206828545664,30
599667206836233344,30
599667206843921152,32
599667206851608832,35
599667206859296640,35
599667206866984320,35
599667206874672128,35
599667206882359936,35
599667206890047616,35
599667206897735424,35
599667206905423104,28
599667206913110912,23
599667206920798592,35
599667206928486366,51
599667206936173952,61
599667206943861504,68
599667206951549184,73
599667206959236736,63
599667206966924416,37
599667206974611968,18
599667206982299648,21
599667206989987200,28
599667206997674880,23
599667207005362432,25
599667207013050112,28
599667207020737664,25
599667207028425216,25
599667207036112896,25
599667207043800448,-7
599667207051488128,-141
599667207059175680,-318
599667207066863360,-216
599667207074550912,400
599667207082238592,1291
599667207089926144,1736
599667207097613696,1163
599667207105301376,174
599667207112988928,-193
599667207120676608,-120
599667207128364160,-124
599667207136051840,-87
599667207143739392,-11
599667207151427072,-35
599667207159114624,-56
599667207166802304,-25
599667207174489856,-16
599667207182177408,-21
599667207189865088,-7
599667207197552640,2
599667207205240320,2
599667207212927872,11
599667207220615552,21
599667207228303104,28
599667207235990784,35
599667207243678336,44
599667207251365888,51
599667207259053568,61
599667207266741120,70
599667207274428800,82
599667207282116352,94
599667207289804032,103
599667207297491584,117
599667207305179264,131
599667207312866816,148
599667207320554496,167
599667207328242048,186
599667207335929600,209
599667207343617280,233
599667207351304832,256
599667207358992512,273
599667207366680064,287
599667207374367744,294
599667207382055296,292
599667207389742976,268
599667207397430528,214
599667207405118080,139
599667207412805760,58
599667207420493312,-9
599667207428180992,-65
599667207435868544,-108
599667207443556224,-136
599667207451243776,-150
599667207458931456,-157
599667207466619008,-157
599667207474306688,-155
599667207481994240,-150
599667207489681868,-143
599667207497369600,-139
599667207505057280,-131
599667207512744960,-124
599667207520432640,-120
599667207528120320,-113
599667207535808000,-106
599667207543495680,-94
599667207551183360,-84
599667207558871040,-77
599667207566558720,-73
599667207574246400,-65
599667207581934080,-56
599667207589621760,-49
599667207597309440,-44
599667207604997120,-40
599667207612684800,-35
599667207620372480,-30
599667207628060160,-30
599667207635747840,-28
599667207643435520,-23
599667207651123200,-23
599667207658810880,-23
599667207666498560,-23
599667207674186240,-21
599667207681873920,-18
599667207689561600,-18
599667207697249280,-18
599667207704936960,-18
599667207712624640,-16
599667207720312320,-14
599667207728000000,-11
599667207735687680,-9
599667207743375360,-9
599667207751063040,-9
599667207758750720,-7
599667207766438400,-4
599667207774126080,-4
599667207781813760,-2
599667207789501440,0
599667207797189120,0
599667207804876800,2
599667207812564480,4
599667207820252160,9
599667207827939840,9
599667207835627520,9
599667207843315200,14
599667207851002880,16
599667207858690560,21
599667207866378240,25
599667207874065920,25
599667207881753600,25
599667207889441280,28
599667207897128960,30
599667207904816640,30
599667207912504320,30
599667207920192000,32
599667207927879680,32
599667207935567360,32
599667207943255040,35
599667207950942720,35
599667207958630400,37
599667207966318080,37
599667207974005760,37
599667207981693440,37
599667207989381120,37
599667207997068800,40
599667208004756480,40
599667208012444160,40
599667208020131840,40
599667208027819520,40
599667208035507200,40
599667208043194880,40
599667208050882453,40
599667208058569984,40
599667208066257536,37
599667208073945088,37
599667208081632640,40
599667208089320192,42
599667208097007744,40
599667208104695168,37
599667208112382720,40
599667208120070272,37
599667208127757824,37
599667208135445376,40
599667208143132928,32
599667208150820480,30
599667208158508032,44
599667208166195584,63
599667208173883136,70
599667208181570560,77
599667208189258112,82
599667208196945664,63
599667208204633216,35
599667208212320768,28
599667208220008320,35
599667208227695872,35
599667208235383424,32
599667208243070976,30
599667208250758528,30
599667208258446080,32
599667208266133504,32
599667208273821056,28
599667208281508608,-25
599667208289196160,-190
599667208296883712,-327
599667208304571264,-87
599667208312258816,662
599667208319946368,1510
599667208327633920,1675
599667208335321472,866
599667208343009024,-14
599667208350696448,-193
599667208358384000,-110
599667208366071552,-115
599667208373759104,-44
599667208381446656,4
599667208389134208,-32
599667208396821760,-30
599667208404509312,0
599667208412196864,0
599667208419884416,-2
599667208427571840,11
599667208435259392,18
599667208442946944,23
599667208450634496,32
599667208458322048,40
599667208466009600,47
599667208473697152,51
599667208481384704,61
599667208489072256,70
599667208496759808,80
599667208504447360,89
599667208512134784,101
599667208519822336,110
599667208527509888,120
599667208535197440,134
599667208542884992,150
599667208550572544,167
599667208558260096,186
599667208565947648,204
599667208573635200,223
599667208581322752,247
599667208589010176,266
599667208596697728,282
599667208604385280,299
599667208612072868,303
599667208619760768,294
599667208627448704,266
599667208635136640,212
599667208642824704,134
599667208650512640,54
599667208658200576,-16
599667208665888512,-70
599667208673576448,-108
599667208681264384,-136
599667208688952448,-153
599667208696640384,-157
599667208704328320,-157
599667208712016256,-153
599667208719704192,-146
599667208727392128,-141
599667208735080192,-136
599667208742768128,-129
599667208750456064,-122
599667208758144000,-117
599667208765831936,-110
599667208773519872,-101
599667208781207936,-94
599667208788895872,-84
599667208796583808,-77
599667208804271744,-70
599667208811959680,-63
599667208819647616,-56
599667208827335680,-49
599667208835023616,-42
599667208842711552,-40
599667208850399488,-35
599667208858087424,-30
599667208865775488,-25
599667208873463424,-23
599667208881151360,-21
599667208888839296,-18
599667208896527232,-16
599667208904215168,-18
599667208911903232,-18
599667208919591168,-16
599667208927279104,-16
599667208934967040,-16
599667208942654976,-14
599667208950342912,-11
599667208958030976,-11
599667208965718912,-9
599667208973406848,-9
599667208981094784,-9
599667208988782720,-7
599667208996470656,-7
599667209004158720,-4
599667209011846656,-4
599667209019534592,-2
599667209027222528,0
599667209034910464,4
599667209042598400,4
599667209050286464,7
599667209057974400,9
599667209065662336,11
599667209073350272,11
599667209081038208,16
599667209088726272,16
599667209096414208,16
599667209104102144,18
599667209111790080,21
599667209119478016,23
599667209127165952,23
599667209134854016,23
599667209142541952,25
599667209150229888,25
599667209157917824,28
599667209165605760,30
599667209173293805,28
599667209180981504,28
599667209188669184,28
599667209196356864,30
599667209204044544,30
599667209211732224,30
599667209219419904,32
599667209227107584,32
599667209234795264,32
599667209242482944,30
599667209250170624,32
599667209257858304,35
599667209265545984,37
599667209273233664,35
599667209280921344,35
599667209288609024,37
599667209296296704,37
599667209303984384,37
599667209311672064,35
599667209319359744,37
599667209327047424,37
599667209334735104,35
599667209342422784,28
599667209350110464,30
599667209357798144,44
599667209365485824,61
599667209373173504,73
599667209380861184,82
599667209388548864,82
599667209396236544,58
599667209403924224,30
599667209411611904,28
599667209419299584,35
599667209426987264,32
599667209434674944,30
599667209442362624,30
599667209450050304,30
599667209457737984,30
599667209465425664,30
599667209473113344,21
599667209480801024,-51
599667209488488704,-233
599667209496176384,-322
599667209503864064,25
599667209511551744,845
599667209519239424,1623
599667209526927104,1573
599667209534614784,645
599667209542302464,-110
599667209549990144,-179
599667209557677824,-117
599667209565365504,-124
599667209573053184,-40
599667209580740864,-9
599667209588428544,-49
599667209596116224,-40
599667209603803904,-16
599667209611491584,-21
599667209619179264,-14
599667209626866944,0
599667209634554624,2
599667209642242304,7
599667209649929984,16
599667209657617664,23
599667209665305344,30
599667209672993024,37
599667209680680704,47
599667209688368384,51
599667209696056064,61
599667209703743744,73
599667209711431424,82
599667209719119104,94
599667209726806784,106
599667209734494394,117
599667209742181888,134
599667209749869440,153
599667209757557120,171
599667209765244672,195
599667209772932352,216
599667209780619904,237
599667209788307584,259
599667209795995136,280
599667209803682816,292
599667209811370368,296
599667209819058048,285
599667209826745600,252
599667209834433152,190
599667209842120832,113
599667209849808384,32
599667209857496064,-37
599667209865183616,-94
599667209872871296,-134
599667209880558848,-157
599667209888246528,-167
599667209895934080,-171
599667209903621632,-171
599667209911309312,-167
599667209918996864,-162
599667209926684544,-157
599667209934372096,-150
599667209942059776,-141
599667209949747328,-136
599667209957435008,-129
599667209965122560,-124
599667209972810240,-117
599667209980497792,-108
599667209988185344,-101
599667209995873024,-94
599667210003560576,-87
599667210011248256,-80
599667210018935808,-73
599667210026623488,-65
599667210034311040,-58
599667210041998720,-54
599667210049686272,-49
599667210057373824,-47
599667210065061504,-44
599667210072749056,-40
599667210080436736,-40
599667210088124288,-40
599667210095811968,-40
599667210103499520,-37
599667210111187200,-37
599667210118874752,-37
599667210126562432,-35
599667210134249984,-35
599667210141937536,-35
599667210149625216,-32
599667210157312768,-30
599667210165000448,-28
599667210172688000,-25
599667210180375680,-23
599667210188063232,-25
599667210195750912,-23
599667210203438464,-21
599667210211126016,-21
599667210218813696,-18
599667210226501248,-16
599667210234188928,-14
599667210241876480,-11
599667210249564160,-7
599667210257251712,-4
599667210264939392,-4
599667210272626944,-4
599667210280314624,-2
599667210288002176,0
599667210295689896,2
599667210303377664,4
599667210311065472,4
599667210318753152,7
599667210326440960,7
599667210334128640,9
599667210341816448,11
599667210349504128,14
599667210357191936,14
599667210364879616,16
599667210372567424,16
599667210380255104,21
599667210387942912,25
599667210395630592,28
599667210403318400,28
599667210411006208,28
599667210418693888,30
599667210426381696,32
599667210434069376,32
599667210441757184,35
599667210449444864,35
599667210457132672,32
599667210464820352,32
599667210472508160,35
599667210480195840,35
599667210487883648,32
599667210495571328,30
599667210503259136,30
599667210510946944,25
599667210518634624,18
599667210526322432,25
599667210534010112,44
599667210541697920,58
599667210549385600,61
599667210557073408,68
599667210564761088,65
599667210572448896,40
599667210580136576,18
599667210587824384,21
599667210595512064,25
599667210603199872,21
599667210610887680,21
599667210618575360,21
599667210626263168,21
599667210633950848,21
599667210641638656,21
599667210649326336,2
599667210657014144,-108
599667210664701824,-299
599667210672389632,-285
599667210680077312,230
599667210687765120,1109
599667210695452800,1705
599667210703140608,1333
599667210710828416,334
599667210718516096,-193
599667210726203904,-160
599667210733891584,-136
599667210741579392,-110
599667210749267072,-18
599667210756954880,-23
599667210764642560,-56
599667210772330368,-30
599667210780018048,-11
599667210787705856,-16
599667210795393536,-7
599667210803081344,7
599667210810769152,9
599667210818456832,14
599667210826144640,21
599667210833832320,28
599667210841520128,37
599667210849207808,47
599667210856895568,54
599667210864583168,63
599667210872270720,73
599667210879958272,84
599667210887645824,96
599667210895333376,110
599667210903020928,124
599667210910708352,139
599667210918395904,155
599667210926083456,174
599667210933771008,195
599667210941458560,219
599667210949146112,240
599667210956833664,259
599667210964521216,280
599667210972208768,296
599667210979896320,308
599667210987583744,306
599667210995271296,292
599667211002958848,252
599667211010646400,186
599667211018333952,103
599667211026021504,21
599667211033709056,-44
599667211041396608,-96
599667211049084160,-134
599667211056771712,-155
599667211064459264,-167
599667211072146688,-171
599667211079834240,-171
599667211087521792,-164
599667211095209344,-155
599667211102896896,-150
599667211110584448,-146
599667211118272000,-136
599667211125959552,-127
599667211133647104,-122
599667211141334656,-115
599667211149022208,-106
599667211156709632,-98
599667211164397184,-91
599667211172084736,-84
599667211179772288,-77
599667211187459840,-70
599667211195147392,-61
599667211202834944,-54
599667211210522496,-49
599667211218210048,-47
599667211225897600,-42
599667211233585024,-37
599667211241272576,-32
599667211248960128,-35
599667211256647680,-32
599667211264335232,-30
599667211272022784,-30
599667211279710336,-28
599667211287397888,-25
599667211295085440,-25
599667211302772992,-28
599667211310460544,-28
599667211318147968,-28
599667211325835520,-25
599667211333523072,-18
599667211341210624,-16
599667211348898176,-21
599667211356585728,-23
599667211364273280,-18
599667211371960832,-14
599667211379648384,-11
599667211387335936,-14
599667211395023360,-16
599667211402710912,-9
599667211410398464,-2
599667211418085983,-2
599667211425773568,-2
599667211433461120,-4
599667211441148672,-2
599667211448836224,2
599667211456523776,9
599667211464211328,14
599667211471898752,14
599667211479586304,11
599667211487273856,14
599667211494961408,16
599667211502648960,16
599667211510336512,16
599667211518024064,18
599667211525711616,18
599667211533399168,21
599667211541086720,23
599667211548774144,23
599667211556461696,21
599667211564149248,18
599667211571836800,21
599667211579524352,23
599667211587211904,16
599667211594899456,14
599667211602587008,32
599667211610274560,51
599667211617962112,56
599667211625649664,61
599667211633337088,65
599667211641024640,47
599667211648712192,23
599667211656399744,18
599667211664087296,21
599667211671774848,21
599667211679462400,18
599667211687149952,18
599667211694837504,23
599667211702525056,23
599667211710212608,23
599667211717900032,16
599667211725587584,-47
599667211733275136,-226
599667211740962688,-353
599667211748650240,-61
599667211756337792,732
599667211764025344,1561
599667211771712896,1606
599667211779400448,699
599667211787088000,-115
599667211794775424,-207
599667211802462976,-139
599667211810150528,-150
599667211817838080,-42
599667211825525632,18
599667211833213184,-30
599667211840900736,-25
599667211848588288,7
599667211856275840,2
599667211863963392,4
599667211871650944,21
599667211879338368,28
599667211887025920,32
599667211894713472,42
599667211902401024,51
599667211910088576,61
599667211917776128,70
599667211925463680,77
599667211933151232,84
599667211940838784,96
599667211948526336,106
599667211956213760,115
599667211963901312,127
599667211971588864,141
599667211979276398,153
599667211986964352,169
599667211994652288,188
599667212002340224,209
599667212010028288,230
599667212017716224,254
599667212025404160,278
599667212033092096,299
599667212040780032,318
599667212048467968,334
599667212056156032,339
599667212063843968,322
599667212071531904,282
599667212079219840,212
599667212086907776,124
599667212094595712,42
599667212102283776,-28
599667212109971712,-84
599667212117659648,-124
599667212125347584,-150
599667212133035520,-162
599667212140723456,-164
599667212148411520,-164
599667212156099456,-160
599667212163787392,-155
599667212171475328,-150
599667212179163264,-143
599667212186851200,-136
599667212194539264,-129
599667212202227200,-122
599667212209915136,-115
599667212217603072,-108
599667212225291008,-98
599667212232979072,-89
599667212240667008,-84
599667212248354944,-77
599667212256042880,-70
599667212263730816,-63
599667212271418752,-56
599667212279106816,-49
599667212286794752,-44
599667212294482688,-40
599667212302170624,-37
599667212309858560,-32
599667212317546496,-30
599667212325234560,-30
599667212332922496,-32
599667212340610432,-32
599667212348298368,-32
599667212355986304,-30
599667212363674240,-30
599667212371362304,-28
599667212379050240,-28
599667212386738176,-25
599667212394426112,-25
599667212402114048,-23
599667212409801984,-16
599667212417490048,-14
599667212425177984,-14
599667212432865920,-14
599667212440553856,-14
599667212448241792,-11
599667212455929856,-9
599667212463617792,-9
599667212471305728,-7
599667212478993664,-4
599667212486681600,-2
599667212494369536,-2
599667212502057600,-2
599667212509745536,0
599667212517433472,2
599667212525121408,2
599667212532809344,4
599667212540497335,7
599667212548185216,7
599667212555873152,7
599667212563561088,9
599667212571249152,11
599667212578937088,11
599667212586625024,14
599667212594312960,14
599667212602000896,14
599667212609688832,16
599667212617376896,16
599667212625064832,18
599667212632752768,21
599667212640440704,16
599667212648128640,9
599667212655816576,16
599667212663504640,37
599667212671192576,51
599667212678880512,56
599667212686568448,63
599667212694256384,58
599667212701944320,32
599667212709632384,11
599667212717320320,16
599667212725008256,23
599667212732696192,18
599667212740384128,16
599667212748072064,21
599667212755760128,21
599667212763448064,18
599667212771136000,21
599667212778823936,7
599667212786511872,-91
599667212794199808,-287
599667212801887872,-313
599667212809575808,150
599667212817263744,1029
599667212824951680,1712
599667212832639616,1458
599667212840327680,464
599667212848015616,-150
599667212855703552,-141
599667212863391488,-113
599667212871079424,-115
599667212878767360,-30
599667212886455424,-23
599667212894143360,-58
599667212901831296,-37
599667212909519232,-14
599667212917207168,-16
599667212924895104,-11
599667212932583168,2
599667212940271104,7
599667212947959040,11
599667212955646976,21
599667212963334912,28
599667212971022848,32
599667212978710912,42
599667212986398848,51
599667212994086784,58
599667213001774720,68
599667213009462656,77
599667213017150592,89
599667213024838656,101
599667213032526592,115
599667213040214528,131
599667213047902464,148
599667213055590400,167
599667213063278464,188
599667213070966400,212
599667213078654336,237
599667213086342272,261
599667213094030208,282
599667213101718268,303
599667213109405824,318
599667213117093376,322
599667213124780928,306
599667213132468480,259
599667213140156032,188
599667213147843584,103
599667213155531008,21
599667213163218560,-47
599667213170906112,-96
599667213178593664,-131
599667213186281216,-157
599667213193968768,-167
599667213201656320,-167
599667213209343872,-164
599667213217031424,-157
599667213224718976,-150
599667213232406400,-146
599667213240093952,-139
599667213247781504,-134
599667213255469056,-124
599667213263156608,-115
599667213270844160,-110
599667213278531712,-106
599667213286219264,-98
599667213293906816,-91
599667213301594368,-84
599667213309281920,-75
599667213316969344,-70
599667213324656896,-63
599667213332344448,-58
599667213340032000,-51
599667213347719552,-44
599667213355407104,-40
599667213363094656,-37
599667213370782208,-32
599667213378469760,-32
599667213386157312,-30
599667213393844864,-28
599667213401532288,-25
599667213409219840,-23
599667213416907392,-21
599667213424594944,-21
599667213432282496,-18
599667213439970048,-16
599667213447657600,-14
599667213455345152,-14
599667213463032704,-11
599667213470720256,-11
599667213478407680,-9
599667213486095232,-7
599667213493782784,-4
599667213501470336,-4
599667213509157888,-2
599667213516845440,-2
599667213524532992,0
599667213532220544,2
599667213539908096,4
599667213547595648,4
599667213555283200,4
599667213562970624,4
599667213570658176,7
599667213578345728,11
599667213586033280,11
599667213593720832,11
599667213601408384,11
599667213609095936,14
599667213616783488,14
599667213624471040,16
599667213632158592,18
599667213639846016,21
599667213647533568,21
599667213655221120,21
599667213662908683,25
599667213670596480,28
599667213678284288,28
599667213685972096,28
599667213693659904,28
599667213701347712,28
599667213709035520,25
599667213716723456,28
599667213724411264,30
599667213732099072,30
599667213739786880,28
599667213747474688,30
599667213755162496,32
599667213762850304,32
599667213770538112,32
599667213778225920,30
599667213785913728,30
599667213793601536,30
599667213801289344,28
599667213808977280,25
599667213816665088,37
599667213824352896,58
599667213832040704,68
599667213839728512,73
599667213847416320,77
599667213855104128,68
599667213862791936,42
599667213870479744,30
599667213878167552,30
599667213885855360,28
599667213893543168,28
599667213901231104,30
599667213908918912,32
599667213916606720,35
599667213924294528,37
599667213931982336,40
599667213939670144,25
599667213947357952,-75
599667213955045760,-270
599667213962733568,-296
599667213970421376,179
599667213978109184,1062
599667213985796992,1726
599667213993484928,1446
599667214001172736,447
599667214008860544,-160
599667214016548352,-148
599667214024236160,-115
599667214031923968,-108
599667214039611776,-21
599667214047299584,-9
599667214054987392,-47
599667214062675200,-28
599667214070363008,-7
599667214078050816,-9
599667214085738752,-2
599667214093426560,9
599667214101114368,14
599667214108802176,18
599667214116489984,28
599667214124177792,35
599667214131865600,42
599667214139553408,51
599667214147241216,58
599667214154929024,68
599667214162616832,77
599667214170304640,87
599667214177992576,98
599667214185680384,110
599667214193368192,122
599667214201056000,134
599667214208743808,150
599667214216431616,171
599667214224119446,190
599667214231807104,212
599667214239494784,237
599667214247182464,261
599667214254870144,278
599667214262557824,294
599667214270245504,313
599667214277933184,322
599667214285620864,310
599667214293308544,273
599667214300996224,207
599667214308683904,124
599667214316371584,42
599667214324059264,-25
599667214331746944,-82
599667214339434624,-122
599667214347122304,-146
599667214354809984,-160
599667214362497664,-164
599667214370185344,-164
599667214377873024,-164
599667214385560704,-157
599667214393248384,-146
599667214400936064,-134
599667214408623744,-129
599667214416311424,-122
599667214423999104,-113
599667214431686784,-103
599667214439374464,-98
599667214447062144,-94
599667214454749824,-84
599667214462437504,-75
599667214470125184,-68
599667214477812864,-58
599667214485500544,-51
599667214493188224,-49
599667214500875904,-44
599667214508563584,-40
599667214516251264,-35
599667214523938944,-30
599667214531626624,-28
599667214539314304,-28
599667214547001984,-23
599667214554689664,-23
599667214562377344,-23
599667214570065024,-23
599667214577752704,-21
599667214585440384,-21
599667214593128064,-21
599667214600815744,-21
599667214608503424,-18
599667214616191104,-16
599667214623878784,-16
599667214631566464,-16
599667214639254144,-16
599667214646941824,-11
599667214654629504,-9
599667214662317184,-11
599667214670004864,-11
599667214677692544,-9
599667214685380224,-4
599667214693067904,-2
599667214700755584,-2
599667214708443264,-2
599667214716130944,-2
599667214723818624,0
599667214731506304,4
599667214739193984,4
599667214746881664,4
599667214754569344,7
599667214762257024,9
599667214769944704,9
599667214777632384,11
599667214785320031,11
599667214793008000,16
599667214800695936,16
599667214808383872,16
599667214816071936,18
599667214823759872,21
599667214831447808,23
599667214839135744,28
599667214846823680,28
599667214854511616,25
599667214862199680,25
599667214869887616,28
599667214877575552,30
599667214885263488,30
599667214892951424,28
599667214900639360,30
599667214908327424,30
599667214916015360,30
599667214923703296,32
599667214931391232,35
599667214939079168,32
599667214946767104,32
599667214954455168,35
599667214962143104,35
599667214969831040,32
599667214977518976,32
599667214985206912,30
599667214992894848,30
599667215000582912,23
599667215008270848,21
599667215015958784,35
599667215023646720,56
599667215031334656,65
599667215039022720,68
599667215046710656,75
599667215054398592,61
599667215062086528,32
599667215069774464,21
599667215077462400,25
599667215085150464,28
599667215092838400,25
599667215100526336,25
599667215108214272,25
599667215115902208,25
599667215123590144,25
599667215131278208,23
599667215138966144,-4
599667215146654080,-139
599667215154342016,-322
599667215162029952,-233
599667215169717888,379
599667215177405952,1281
599667215185093888,1755
599667215192781824,1206
599667215200469760,197
599667215208157696,-202
599667215215845632,-129
599667215223533696,-131
599667215231221632,-96
599667215238909568,-11
599667215246597504,-32
599667215254285440,-58
599667215261973504,-28
599667215269661440,-16
599667215277349376,-23
599667215285037312,-9
599667215292725248,2
599667215300413184,4
599667215308101248,11
599667215315789184,21
599667215323477120,28
599667215331165056,35
599667215338852992,44
599667215346540968,51
599667215354228480,61
599667215361916032,70
599667215369603584,80
599667215377291136,94
599667215384978688,106
599667215392666240,117
599667215400353664,131
599667215408041216,148
599667215415728768,167
599667215423416320,190
599667215431103872,216
599667215438791424,237
599667215446478976,259
599667215454166528,282
599667215461854080,303
599667215469541632,320
599667215477229056,320
599667215484916608,306
599667215492604160,266
599667215500291712,197
599667215507979264,117
599667215515666816,37
599667215523354368,-30
599667215531041920,-82
599667215538729472,-122
599667215546417024,-148
599667215554104576,-160
599667215561792000,-162
599667215569479552,-162
599667215577167104,-157
599667215584854656,-150
599667215592542208,-143
599667215600229760,-136
599667215607917312,-129
599667215615604864,-122
599667215623292416,-117
599667215630979968,-113
599667215638667520,-106
599667215646354944,-96
599667215654042496,-91
599667215661730048,-84
599667215669417600,-77
599667215677105152,-70
599667215684792704,-63
599667215692480256,-56
599667215700167808,-51
599667215707855360,-47
599667215715542912,-42
599667215723230336,-37
599667215730917888,-35
599667215738605440,-30
599667215746292992,-28
599667215753980544,-25
599667215761668096,-25
599667215769355648,-23
599667215777043200,-23
599667215784730752,-21
599667215792418304,-21
599667215800105856,-21
599667215807793280,-18
599667215815480832,-18
599667215823168384,-14
599667215830855936,-11
599667215838543488,-11
599667215846231040,-9
599667215853918592,-9
599667215861606144,-9
599667215869293696,-7
599667215876981248,-4
599667215884668672,-4
599667215892356224,-2
599667215900043776,0
599667215907731383,0
599667215915419008,2
599667215923106688,4
599667215930794368,9
599667215938482048,11
599667215946169728,11
599667215953857408,11
599667215961545088,16
599667215969232768,18
599667215976920448,18
599667215984608128,18
599667215992295808,18
599667215999983488,21
599667216007671168,21
599667216015358848,23
599667216023046528,23
599667216030734208,23
599667216038421888,25
599667216046109568,25
599667216053797248,25
599667216061484928,25
599667216069172608,25
599667216076860288,25
599667216084547968,23
599667216092235648,28
599667216099923328,30
599667216107611008,28
599667216115298688,28
599667216122986368,30
599667216130674048,28
599667216138361728,30
599667216146049408,30
599667216153737088,30
599667216161424768,28
599667216169112448,28
599667216176800128,28
599667216184487808,28
599667216192175488,28
599667216199863168,25
599667216207550848,25
599667216215238528,25
599667216222926208,23
599667216230613888,16
599667216238301568,16
599667216245989248,32
599667216253676928,49
599667216261364608,56
599667216269052288,63
599667216276739968,65
599667216284427648,47
599667216292115328,21
599667216299803008,16
599667216307490688,21
599667216315178368,21
599667216322866048,18
599667216330553728,16
599667216338241408,16
599667216345929088,16
599667216353616768,16
599667216361304448,16
599667216368992128,-21
599667216376679808,-167
599667216384367488,-336
599667216392055168,-195
599667216399742848,471
599667216407430528,1364
599667216415118208,1741
599667216422805888,1107
599667216430493568,129
599667216438181248,-207
599667216445868928,-129
599667216453556608,-131
599667216461244288,-84
599667216468931972,-14
599667216476619776,-40
599667216484307584,-56
599667216491995392,-25
599667216499683200,-18
599667216507371008,-21
599667216515058816,-9
599667216522746624,0
599667216530434560,4
599667216538122368,14
599667216545810176,25
599667216553497984,30
599667216561185792,37
599667216568873600,47
599667216576561408,56
599667216584249216,65
599667216591937024,77
599667216599624832,87
599667216607312640,98
599667216615000448,110
599667216622688384,124
599667216630376192,139
599667216638064000,155
599667216645751808,174
599667216653439616,195
599667216661127424,216
599667216668815232,240
599667216676503040,263
599667216684190848,285
599667216691878656,301
599667216699566464,313
599667216707254272,318
599667216714942208,306
599667216722630016,266
599667216730317824,197
599667216738005632,117
599667216745693440,37
599667216753381248,-30
599667216761069056,-84
599667216768756864,-122
599667216776444672,-146
599667216784132480,-162
599667216791820288,-164
599667216799508096,-162
599667216807196032,-157
599667216814883840,-153
599667216822571648,-146
599667216830259456,-139
599667216837947264,-131
599667216845635072,-124
599667216853322880,-120
599667216861010688,-110
599667216868698496,-98
599667216876386304,-94
599667216884074112,-84
599667216891761920,-73
599667216899449856,-61
599667216907137664,-49
599667216914825472,-40
599667216922513280,-28
599667216930201088,-14
599667216937888896,0
599667216945576704,14
599667216953264512,28
599667216960952320,40
599667216968640128,49
599667216976327936,61
599667216984015744,80
599667216991703680,75
599667216999391488,61
599667217007079296,89
599667217014767104,117
599667217022454912,117
599667217030142731,113
599667217037830272,108
599667217045517824,110
599667217053205376,117
599667217060892928,117
599667217068580480,115
599667217076268032,108
599667217083955456,98
599667217091643008,110
599667217099330560,120
599667217107018112,117
599667217114705664,113
599667217122393216,101
599667217130080768,110
599667217137768320,127
599667217145455872,120
599667217153143424,106
599667217160830848,91
599667217168518400,87
599667217176205952,131
599667217183893504,141
599667217191581056,56
599667217199268608,44
599667217206956160,153
599667217214643712,164
599667217222331264,87
599667217230018816,89
599667217237706368,113
599667217245393792,113
599667217253081344,117
599667217260768896,68
599667217268456448,70
599667217276144000,148
599667217283831552,113
599667217291519104,61
599667217299206656,108
599667217306894208,110
599667217314581760,73
599667217322269312,82
599667217329956736,84
599667217337644288,94
599667217345331840,139
599667217353019392,136
599667217360706944,113
599667217368394496,122
599667217376082048,98
599667217383769600,82
599667217391457152,101
599667217399144704,58
599667217406832128,40
599667217414519680,101
599667217422207232,108
599667217429894784,77
599667217437582336,63
599667217445269888,54
599667217452957440,84
599667217460644992,30
599667217468332544,-209
599667217476020096,-313
599667217483707648,106
599667217491395072,968
599667217499082624,1712
599667217506770176,1604
599667217514457728,626
599667217522145280,-127
599667217529832832,-155
599667217537520384,-91
599667217545207936,-124
599667217552895488,-7
599667217560583040,94
599667217568270464,28
599667217575958016,-7
599667217583645568,44
599667217591333146,58
599667217599021056,49
599667217606708992,30
599667217614396800,28
599667217622084736,96
599667217629772672,106
599667217637460480,54
599667217645148416,89
599667217652836224,134
599667217660524160,98
599667217668212096,89
599667217675899904,134
599667217683587840,148
599667217691275776,120
599667217698963584,127
599667217706651520,195
599667217714339328,209
599667217722027264,176
599667217729715200,221
599667217737403008,270
599667217745090944,259
599667217752778880,273
599667217760466688,315
599667217768154624,327
599667217775842432,348
599667217783530368,402
599667217791218304,379
599667217798906112,306
599667217806594048,313
599667217814281984,315
599667217821969792,193
599667217829657728,54
599667217837345536,0
599667217845033472,-32
599667217852721408,-96
599667217860409216,-167
599667217868097152,-174
599667217875785088,-113
599667217883472896,-131
599667217891160832,-186
599667217898848640,-146
599667217906536576,-124
599667217914224512,-150
599667217921912320,-127
599667217929600256,-113
599667217937288192,-120
599667217944976000,-84
599667217952663936,-80
599667217960351872,-117
599667217968039680,-89
599667217975727616,-32
599667217983415424,-54
599667217991103360,-77
599667217998791296,-37
599667218006479104,-23
599667218014167040,-35
599667218021854976,-44
599667218029542784,-47
599667218037230720,0
599667218044918528,14
599667218052606464,-25
599667218060294400,-23
599667218067982208,-7
599667218075670144,7
599667218083358080,-2
599667218091045888,-21
599667218098733824,-9
599667218106421632,-18
599667218114109568,-30
599667218121797504,7
599667218129485312,16
599667218137173248,0
599667218144861184,7
599667218152548996,-11
599667218160236544,-18
599667218167924096,18
599667218175611776,11
599667218183299328,-14
599667218190987008,0
599667218198674560,9
599667218206362240,18
599667218214049792,14
599667218221737472,-11
599667218229425024,9
599667218237112704,44
599667218244800256,23
599667218252487808,-11
599667218260175488,0
599667218267863040,35
599667218275550720,51
599667218283238272,58
599667218290925952,61
599667218298613504,70
599667218306301184,82
599667218313988736,51
599667218321676288,7
599667218329363968,11
599667218337051520,37
599667218344739200,32
599667218352426752,16
599667218360114432,28
599667218367801984,16
599667218375489664,0
599667218383177216,54
599667218390864896,54
599667218398552448,-87
599667218406240000,-294
599667218413927680,-322
599667218421615232,143
599667218429302912,1050
599667218436990464,1762
599667218444678144,1488
599667218452365696,466
599667218460053376,-153
599667218467740928,-136
599667218475428480,-106
599667218483116160,-110
599667218490803712,-21
599667218498491392,4
599667218506178944,-18
599667218513866624,-7
599667218521554176,-7
599667218529241856,-9
599667218536929408,14
599667218544617088,35
599667218552304640,47
599667218559992192,47
599667218567679872,37
599667218575367424,40
599667218583055104,70
599667218590742656,82
599667218598430336,63
599667218606117888,82
599667218613805568,115
599667218621493120,103
599667218629180672,103
599667218636868352,129
599667218644555904,146
599667218652243584,164
599667218659931136,181
599667218667618816,195
599667218675306368,221
599667218682994048,252
599667218690681600,268
599667218698369280,285
599667218706056832,327
599667218713744498,358
599667218721432064,351
599667218729119616,351
599667218736807296,341
599667218744494848,273
599667218752182528,195
599667218759870080,120
599667218767557760,23
599667218775245312,-21
599667218782932992,-61
599667218790620544,-134
599667218798308224,-157
599667218805995776,-150
599667218813683328,-157
599667218821371008,-157
599667218829058560,-153
599667218836746240,-146
599667218844433792,-136
599667218852121472,-120
599667218859809024,-129
599667218867496704,-141
599667218875184256,-91
599667218882871808,-82
599667218890559488,-122
599667218898247040,-82
599667218905934720,-54
599667218913622272,-89
599667218921309952,-80
599667218928997504,-51
599667218936685184,-56
599667218944372736,-51
599667218952060416,-23
599667218959747968,-16
599667218967435520,-32
599667218975123200,-30
599667218982810752,-11
599667218990498432,-2
599667218998185984,-4
599667219005873664,-9
599667219013561216,-18
599667219021248896,-18
599667219028936448,-9
599667219036624000,-2
599667219044311680,-4
599667219051999232,-7
599667219059686912,-14
599667219067374464,-9
599667219075062144,7
599667219082749696,-2
599667219090437376,-9
599667219098124928,0
599667219105812608,2
599667219113500160,-2
599667219121187712,-4
599667219128875392,0
599667219136562944,7
599667219144250624,7
599667219151938176,0
599667219159625856,-7
599667219167313408,11
599667219175001088,49
599667219182688640,49
599667219190376192,44
599667219198063872,68
599667219205751424,56
599667219213439104,21
599667219221126656,14
599667219228814336,21
599667219236501888,21
599667219244189568,14
599667219251877120,18
599667219259564800,28
599667219267252352,28
599667219274940000,23
599667219282627584,30
599667219290315136,16
599667219298002816,-80
599667219305690368,-275
599667219313378048,-315
599667219321065600,136
599667219328753280,1017
599667219336440832,1741
599667219344128512,1517
599667219351816064,501
599667219359503744,-134
599667219367191296,-134
599667219374878848,-115
599667219382566528,-101
599667219390254080,-9
599667219397941760,-9
599667219405629312,-47
599667219413316992,-25
599667219421004544,-9
599667219428692224,-11
599667219436379776,0
599667219444067328,14
599667219451755008,18
599667219459442560,23
599667219467130240,28
599667219474817792,49
599667219482505472,58
599667219490193024,49
599667219497880704,58
599667219505568256,87
599667219513255936,96
599667219520943488,96
599667219528631040,106
599667219536318720,122
599667219544006272,136
599667219551693952,143
599667219559381504,155
599667219567069184,193
599667219574756736,226
599667219582444416,235
599667219590131968,256
599667219597819520,292
599667219605507200,315
599667219613194752,332
599667219620882432,343
599667219628569984,348
599667219636257664,332
599667219643945216,273
599667219651632896,186
599667219659320448,101
599667219667008128,4
599667219674695680,-63
599667219682383232,-77
599667219690070912,-113
599667219697758464,-157
599667219705446144,-157
599667219713133696,-150
599667219720821376,-150
599667219728508928,-146
599667219736196608,-139
599667219743884160,-134
599667219751571712,-122
599667219759259392,-113
599667219766946944,-103
599667219774634624,-101
599667219782322176,-103
599667219790009856,-103
599667219797697408,-82
599667219805385088,-70
599667219813072640,-77
599667219820760320,-73
599667219828447872,-56
599667219836135502,-49
599667219843823360,-49
599667219851511168,-42
599667219859198976,-35
599667219866886784,-32
599667219874574592,-30
599667219882262400,-25
599667219889950208,-25
599667219897638144,-21
599667219905325952,-18
599667219913013760,-16
599667219920701568,-7
599667219928389376,-9
599667219936077184,-18
599667219943764992,-11
599667219951452800,2
599667219959140608,0
599667219966828416,-2
599667219974516224,2
599667219982204032,-4
599667219989891968,-11
599667219997579776,2
599667220005267584,11
599667220012955392,11
599667220020643200,14
599667220028331008,7
599667220036018816,9
599667220043706624,23
599667220051394432,16
599667220059082240,7
599667220066770048,7
599667220074457856,9
599667220082145792,23
599667220089833600,44
599667220097521408,58
599667220105209216,58
599667220112897024,56
599667220120584832,56
599667220128272640,42
599667220135960448,23
599667220143648256,23
599667220151336064,28
599667220159023872,23
599667220166711680,21
599667220174399616,25
599667220182087424,25
599667220189775232,25
599667220197463040,35
599667220205150848,30
599667220212838656,-42
599667220220526464,-228
599667220228214272,-343
599667220235902080,-35
599667220243589888,756
599667220251277696,1599
599667220258965504,1684
599667220266653440,782
599667220274341248,-56
599667220282029056,-157
599667220289716864,-101
599667220297404672,-139
599667220305092480,-51
599667220312780288,0
599667220320468096,-54
599667220328155904,-56
599667220335843712,-18
599667220343531520,-16
599667220351219328,-9
599667220358907264,9
599667220366595072,7
599667220374282880,9
599667220381970688,25
599667220389658496,32
599667220397346261,32
599667220405033856,40
599667220412721408,56
599667220420408960,61
599667220428096512,58
599667220435784064,89
599667220443471616,110
599667220451159040,101
599667220458846592,113
599667220466534144,143
599667220474221696,164
599667220481909248,176
599667220489596800,195
599667220497284352,219
599667220504971904,247
599667220512659456,278
599667220520347008,310
599667220528034432,332
599667220535721984,341
599667220543409536,348
599667220551097088,325
599667220558784640,266
599667220566472192,204
599667220574159744,134
599667220581847296,32
599667220589534848,-44
599667220597222400,-82
599667220604909952,-120
599667220612597376,-150
599667220620284928,-155
599667220627972480,-162
599667220635660032,-162
599667220643347584,-150
599667220651035136,-143
599667220658722688,-143
599667220666410240,-139
599667220674097792,-127
599667220681785344,-120
599667220689472896,-115
599667220697160320,-108
599667220704847872,-101
599667220712535424,-98
599667220720222976,-94
599667220727910528,-96
599667220735598080,-89
599667220743285632,-56
599667220750973184,-54
599667220758660736,-77
599667220766348288,-65
599667220774035712,-47
599667220781723264,-44
599667220789410816,-44
599667220797098368,-47
599667220804785920,-51
599667220812473472,-40
599667220820161024,-32
599667220827848576,-47
599667220835536128,-37
599667220843223680,-11
599667220850911232,-18
599667220858598656,-37
599667220866286208,-32
599667220873973760,-25
599667220881661312,-21
599667220889348864,-14
599667220897036416,-21
599667220904723968,-32
599667220912411520,-21
599667220920099072,-4
599667220927786624,-4
599667220935474048,-7
599667220943161600,-9
599667220950849152,-23
599667220958536676,-18
599667220966224640,14
599667220973912576,18
599667220981600384,4
599667220989288320,2
599667220996976256,7
599667221004664064,11
599667221012352000,4
599667221020039808,2
599667221027727744,25
599667221035415680,44
599667221043103488,56
599667221050791424,65
599667221058479360,61
599667221066167168,40
599667221073855104,9
599667221081542912,11
599667221089230848,32
599667221096918784,30
599667221104606592,18
599667221112294528,16
599667221119982464,21
599667221127670272,25
599667221135358208,21
599667221143046016,23
599667221150733952,14
599667221158421888,-110
599667221166109696,-318
599667221173797632,-282
599667221181485568,278
599667221189173376,1182
599667221196861312,1750
599667221204549120,1307
599667221212237056,270
599667221219924992,-209
599667221227612800,-122
599667221235300736,-122
599667221242988672,-129
599667221250676480,-14
599667221258364416,2
599667221266052224,-54
599667221273740160,-42
599667221281428096,-9
599667221289115904,-11
599667221296803840,-2
599667221304491776,23
599667221312179584,21
599667221319867520,14
599667221327555456,30
599667221335243264,40
599667221342931200,37
599667221350619008,47
599667221358306944,61
599667221365994880,58
599667221373682688,68
599667221381370624,96
599667221389058560,108
599667221396746368,108
599667221404434304,129
599667221412122112,150
599667221419810048,157
599667221427497984,176
599667221435185792,202
599667221442873728,214
599667221450561664,235
599667221458249472,275
599667221465937408,306
599667221473625216,325
599667221481313152,341
599667221489001088,334
599667221496688896,296
599667221504376832,214
599667221512064768,124
599667221519752526,80
599667221527440128,14
599667221535127680,-80
599667221542815360,-103
599667221550502912,-115
599667221558190592,-155
599667221565878144,-171
599667221573565824,-186
599667221581253376,-160
599667221588941056,-82
599667221596628608,-106
599667221604316288,-190
599667221612003840,-162
599667221619691392,-75
599667221627379072,-61
599667221635066624,-110
599667221642754304,-113
599667221650441856,-73
599667221658129536,-65
599667221665817088,-80
599667221673504768,-73
599667221681192320,-58
599667221688879872,-49
599667221696567552,-75
599667221704255104,-75
599667221711942784,-2
599667221719630336,9
599667221727318016,-44
599667221735005568,-47
599667221742693248,-16
599667221750380800,-2
599667221758068480,-14
599667221765756032,-21
599667221773443584,-16
599667221781131264,-16
599667221788818816,-16
599667221796506496,-9
599667221804194048,-11
599667221811881728,-11
599667221819569280,-9
599667221827256960,-16
599667221834944512,-14
599667221842632064,4
599667221850319744,11
599667221858007296,-2
599667221865694976,-9
599667221873382528,0
599667221881070208,7
599667221888757760,-9
599667221896445440,0
599667221904132992,16
599667221911820672,9
599667221919508224,21
599667221927195776,47
599667221934883456,56
599667221942571008,51
599667221950258688,44
599667221957946240,37
599667221965633920,14
599667221973321472,0
599667221981009152,30
599667221988696704,35
599667221996384256,14
599667222004071936,23
599667222011759488,32
599667222019447168,16
599667222027134720,14
599667222034822400,28
599667222042509952,0
599667222050197632,-153
599667222057885184,-343
599667222065572864,-221
599667222073260416,475
599667222080948028,1422
599667222088635520,1797
599667222096323072,1121
599667222104010752,153
599667222111698304,-150
599667222119385984,-94
599667222127073536,-136
599667222134761216,-84
599667222142448768,7
599667222150136448,-25
599667222157824000,-47
599667222165511680,-14
599667222173199232,-4
599667222180886784,-2
599667222188574464,9
599667222196262016,7
599667222203949696,9
599667222211637248,18
599667222219324928,21
599667222227012480,32
599667222234700160,51
599667222242387712,51
599667222250075264,51
599667222257762944,73
599667222265450496,91
599667222273138176,87
599667222280825728,94
599667222288513408,117
599667222296200960,131
599667222303888640,141
599667222311576192,160
599667222319263872,179
599667222326951424,197
599667222334638976,216
599667222342326656,240
599667222350014208,261
599667222357701888,292
599667222365389440,322
599667222373077120,325
599667222380764672,301
599667222388452352,259
599667222396139904,188
599667222403827456,103
599667222411515136,28
599667222419202688,-35
599667222426890368,-84
599667222434577920,-122
599667222442265600,-136
599667222449953152,-141
599667222457640832,-148
599667222465328384,-146
599667222473016064,-136
599667222480703616,-134
599667222488391168,-127
599667222496078848,-108
599667222503766400,-101
599667222511454080,-103
599667222519141632,-98
599667222526829312,-87
599667222534516864,-77
599667222542204544,-80
599667222549892096,-77
599667222557579648,-77
599667222565267328,-75
599667222572954880,-58
599667222580642560,-51
599667222588330112,-56
599667222596017792,-61
599667222603705344,-63
599667222611393024,-61
599667222619080576,-42
599667222626768256,-30
599667222634455808,-35
599667222642143530,-40
599667222649831424,-32
599667222657519360,-37
599667222665207168,-35
599667222672895104,-11
599667222680583040,-11
599667222688270848,-32
599667222695958784,-32
599667222703646592,-25
599667222711334528,-25
599667222719022464,-23
599667222726710272,-21
599667222734398208,-25
599667222742086144,-23
599667222749773952,-18
599667222757461888,-21
599667222765149696,-21
599667222772837632,-18
599667222780525568,-14
599667222788213376,-9
599667222795901312,-16
599667222803589248,-23
599667222811277056,-18
599667222818964992,7
599667222826652800,30
599667222834340736,25
599667222842028672,25
599667222849716480,47
599667222857404416,35
599667222865092352,-2
599667222872780160,-14
599667222880468096,-11
599667222888155904,-16
599667222895843840,-16
599667222903531776,-16
599667222911219584,-18
599667222918907520,-11
599667222926595456,0
599667222934283264,0
599667222941971200,-4
599667222949659008,-25
599667222957346944,-150
599667222965034880,-346
599667222972722688,-301
599667222980410624,268
599667222988098560,1196
599667222995786368,1785
599667223003474304,1338
599667223011162112,325
599667223018850048,-127
599667223026537984,-89
599667223034225792,-136
599667223041913728,-134
599667223049601664,-47
599667223057289472,-65
599667223064977408,-98
599667223072665344,-70
599667223080353152,-56
599667223088041088,-49
599667223095728896,-42
599667223103416832,-44
599667223111104768,-32
599667223118792576,-14
599667223126480512,-16
599667223134168448,-23
599667223141856256,-16
599667223149544192,-14
599667223157232000,-11
599667223164919936,25
599667223172607872,54
599667223180295680,51
599667223187983616,58
599667223195671552,58
599667223203359376,51
599667223211047168,75
599667223218734976,113
599667223226422656,127
599667223234110464,141
599667223241798144,169
599667223249485952,186
599667223257173632,207
599667223264861440,247
599667223272549120,263
599667223280236928,245
599667223287924608,233
599667223295612416,219
599667223303300096,153
599667223310987904,61
599667223318675712,-2
599667223326363392,-47
599667223334051200,-87
599667223341738880,-117
599667223349426688,-136
599667223357114368,-162
599667223364802176,-176
599667223372489856,-155
599667223380177664,-143
599667223387865344,-153
599667223395553152,-148
599667223403240832,-136
599667223410928640,-134
599667223418616448,-124
599667223426304128,-113
599667223433991936,-115
599667223441679616,-113
599667223449367424,-94
599667223457055104,-73
599667223464742912,-49
599667223472430592,-35
599667223480118400,-44
599667223487806080,-56
599667223495493888,-51
599667223503181568,-42
599667223510869376,-35
599667223518557184,-47
599667223526244864,-56
599667223533932672,-47
599667223541620352,-32
599667223549308160,-11
599667223556995840,-25
599667223564683648,-68
599667223572371328,-58
599667223580059136,-37
599667223587746816,-87
599667223595434624,-113
599667223603122304,-73
599667223610810112,-80
599667223618497920,-101
599667223626185600,-87
599667223633873408,-94
599667223641561088,-103
599667223649248896,-106
599667223656936576,-120
599667223664624384,-82
599667223672312064,-18
599667223679999872,-44
599667223687687552,-91
599667223695375360,-89
599667223703063040,-113
599667223710750848,-120
599667223718438656,-94
599667223726126336,-124
599667223733814144,-153
599667223741501824,-136
599667223749189632,-143
599667223756877312,-124
599667223764565052,-110
599667223772252800,-174
599667223779940608,-200
599667223787628288,-176
599667223795316096,-270
599667223803003776,-494
599667223810691584,-567
599667223818379264,-160
599667223826067072,680
599667223833754752,1418
599667223841442560,1286
599667223849130240,393
599667223856818048,-186
599667223864505728,-230
599667223872193536,-299
599667223879881344,-369
599667223887569024,-322
599667223895256832,-296
599667223902944512,-282
599667223910632320,-275
599667223918320000,-289
599667223926007808,-270
599667223933695488,-261
599667223941383296,-280
599667223949070976,-263
599667223956758784,-207
599667223964446464,-200
599667223972134272,-226
599667223979822080,-188
599667223987509760,-150
599667223995197568,-162
599667224002885248,-148
599667224010573056,-110
599667224018260736,-110
599667224025948544,-122
599667224033636224,-108
599667224041324032,-63
599667224049011712,-23
599667224056699520,-14
599667224064387200,-4
599667224072075008,9
599667224079762816,28
599667224087450496,77
599667224095138304,117
599667224102825984,122
599667224110513792,129
599667224118201472,148
599667224125889280,155
599667224133576960,131
599667224141264768,65
599667224148952448,-21
599667224156640256,-80
599667224164327936,-122
599667224172015744,-162
599667224179703552,-171
599667224187391232,-176
599667224195079040,-200
599667224202766720,-195
599667224210454528,-176
599667224218142208,-174
599667224225830016,-176
599667224233517696,-164
599667224241205504,-155
599667224248893184,-141
599667224256580992,-134
599667224264268672,-148
599667224271956480,-153
599667224279644288,-136
599667224287331968,-127
599667224295019776,-124
599667224302707456,-117
599667224310395264,-103
599667224318082944,-96
599667224325770724,-91
599667224333458688,-82
599667224341146624,-77
599667224348834432,-82
599667224356522368,-77
599667224364210304,-58
599667224371898112,-56
599667224379586048,-61
599667224387273856,-49
599667224394961792,-42
599667224402649728,-51
599667224410337536,-56
599667224418025472,-54
599667224425713408,-56
599667224433401216,-49
599667224441089152,-49
599667224448776960,-54
599667224456464896,-49
599667224464152832,-51
599667224471840640,-61
599667224479528576,-51
599667224487216512,-35
599667224494904320,-35
599667224502592256,-37
599667224510280064,-63
599667224517968000,-77
599667224525655936,-11
599667224533343744,44
599667224541031680,18
599667224548719616,14
599667224556407424,37
599667224564095360,21
599667224571783168,4
599667224579471104,7
599667224587159040,2
599667224594846848,-2
599667224602534784,-7
599667224610222720,-9
599667224617910528,7
599667224625598464,11
599667224633286272,-9
599667224640974208,-11
599667224648662144,-2
599667224656349952,-61
599667224664037888,-245
599667224671725824,-391
599667224679413632,-164
599667224687101568,577
599667224694789504,1453
599667224702477312,1618
599667224710165248,878
599667224717853056,164
599667224725540992,2
599667224733228928,-49
599667224740916736,-134
599667224748604672,-106
599667224756292608,-84
599667224763980416,-120
599667224771668352,-124
599667224779356160,-108
599667224787044096,-110
599667224794732032,-106
599667224802419840,-89
599667224810107776,-80
599667224817795712,-77
599667224825483520,-77
599667224833171456,-73
599667224840859264,-63
599667224848547200,-68
599667224856235136,-73
599667224863922944,-70
599667224871610880,-77
599667224879298816,-82
599667224886986574,-70
599667224894674176,-56
599667224902361728,-56
599667224910049408,-61
599667224917736960,-56
599667224925424640,-44
599667224933112192,-28
599667224940799872,-18
599667224948487424,-11
599667224956175104,11
599667224963862656,30
599667224971550208,44
599667224979237888,56
599667224986925440,63
599667224994613120,54
599667225002300672,21
599667225009988352,-21
599667225017675904,-63
599667225025363584,-98
599667225033051136,-124
599667225040738816,-157
599667225048426368,-176
599667225056113920,-164
599667225063801600,-153
599667225071489152,-155
599667225079176832,-169
599667225086864384,-186
599667225094552064,-174
599667225102239616,-143
599667225109927296,-139
599667225117614848,-146
599667225125302400,-136
599667225132990080,-131
599667225140677632,-146
599667225148365312,-153
599667225156052864,-143
599667225163740544,-136
599667225171428096,-136
599667225179115776,-131
599667225186803328,-129
599667225194491008,-143
599667225202178560,-153
599667225209866112,-139
599667225217553792,-122
599667225225241344,-129
599667225232929024,-164
599667225240616576,-181
599667225248304256,-162
599667225255991808,-143
599667225263679488,-155
599667225271367040,-197
599667225279054592,-212
599667225286742272,-171
599667225294429824,-162
599667225302117504,-190
599667225309805056,-176
599667225317492736,-186
599667225325180288,-228
599667225332867968,-202
599667225340555520,-190
599667225348243200,-228
599667225355930752,-228
599667225363618304,-223
599667225371305984,-254
599667225378993536,-252
599667225386681216,-219
599667225394368768,-219
599667225402056448,-209
599667225409744000,-153
599667225417431680,-115
599667225425119232,-113
599667225432806784,-106
599667225440494464,-108
599667225448182072,-110
599667225455869568,-94
599667225463557120,-51
599667225471244800,-16
599667225478932352,-16
599667225486620032,-14
599667225494307584,7
599667225501995264,18
599667225509682816,16
599667225517370496,14
599667225525058048,-32
599667225532745728,-195
599667225540433280,-325
599667225548120832,-108
599667225555808512,612
599667225563496064,1531
599667225571183744,1785
599667225578871296,1137
599667225586558976,506
599667225594246528,329
599667225601934208,188
599667225609621760,25
599667225617309312,-2
599667225624996992,-2
599667225632684544,-25
599667225640372224,-21
599667225648059776,-11
599667225655747456,-4
599667225663435008,4
599667225671122688,-4
599667225678810240,7
599667225686497920,68
599667225694185472,89
599667225701873024,49
599667225709560704,68
599667225717248256,115
599667225724935936,136
599667225732623488,141
599667225740311168,139
599667225747998720,188
599667225755686400,190
599667225763373952,73
599667225771061504,65
599667225778749184,143
599667225786436736,129
599667225794124416,141
599667225801811968,181
599667225809499648,129
599667225817187200,115
599667225824874880,193
599667225832562432,197
599667225840250112,202
599667225847937664,280
599667225855625216,204
599667225863312896,96
599667225871000448,214
599667225878688128,280
599667225886375680,186
599667225894063360,103
599667225901750912,44
599667225909438592,103
599667225917126144,155
599667225924813696,37
599667225932501376,-2
599667225940188928,106
599667225947876608,157
599667225955564160,169
599667225963251840,190
599667225970939392,89
599667225978627072,-65
599667225986314624,68
599667225994002304,280
599667226001689856,94
599667226009377578,-80
599667226017065472,143
599667226024753408,263
599667226032441216,167
599667226040129152,150
599667226047817088,122
599667226055504896,65
599667226063192832,108
599667226070880640,223
599667226078568576,301
599667226086256512,233
599667226093944320,94
599667226101632256,120
599667226109320192,242
599667226117008000,202
599667226124695936,136
599667226132383744,188
599667226140071680,261
599667226147759616,320
599667226155447424,171
599667226163135360,-63
599667226170823296,143
599667226178511104,381
599667226186199040,157
599667226193886848,49
599667226201574784,209
599667226209262720,249
599667226216950528,197
599667226224638464,131
599667226232326400,103
599667226240014208,146
599667226247702144,127
599667226255389952,164
599667226263077888,263
599667226270765824,127
599667226278453632,0
599667226286141568,141
599667226293829504,162
599667226301517312,42
599667226309205248,131
599667226316893056,207
599667226324580992,80
599667226332268928,56
599667226339956736,96
599667226347644672,47
599667226355332608,89
599667226363020416,195
599667226370708352,233
599667226378396160,223
599667226386084096,195
599667226393772032,200
599667226401459840,193
599667226409147776,58
599667226416835712,-23
599667226424523520,249
599667226432211456,975
599667226439899392,1670
599667226447587200,1505
599667226455275136,699
599667226462962944,287
599667226470650880,360
599667226478338816,332
599667226486026624,240
599667226493714560,296
599667226501402496,280
599667226509090304,195
599667226516778240,245
599667226524466048,329
599667226532153984,336
599667226539841920,341
599667226547529728,381
599667226555217664,409
599667226562905600,433
599667226570593424,426
599667226578281216,341
599667226585969024,273
599667226593656704,280
599667226601344512,294
599667226609032192,318
599667226616720000,348
599667226624407680,334
599667226632095488,320
599667226639783168,315
599667226647470976,282
599667226655158656,282
599667226662846464,348
599667226670534144,393
599667226678221952,386
599667226685909760,358
599667226693597440,332
599667226701285248,308
599667226708972928,308
599667226716660736,339
599667226724348416,367
599667226732036224,386
599667226739723904,355
599667226747411712,254
599667226755099392,219
599667226762787200,200
599667226770474880,87
599667226778162688,84
599667226785850496,150
599667226793538176,87
599667226801225984,58
599667226808913664,35
599667226816601472,-148
599667226824289152,-270
599667226831976960,-247
599667226839664640,-329
599667226847352448,-487
599667226855040128,-577
599667226862727936,-723
599667226870415616,-923
599667226878103424,-1038
599667226885791232,-1123
599667226893478912,-1324
599667226901166720,-1597
599667226908854400,-1818
599667226916542208,-1960
599667226924229888,-2106
599667226931917696,-2271
599667226939605376,-2419
599667226947293184,-2535
599667226954980864,-2610
599667226962668672,-2699
599667226970356352,-2801
599667226978044160,-2820
599667226985731968,-2789
599667226993419648,-2803
599667227001107456,-2798
599667227008795136,-2683
599667227016482944,-2591
599667227024170624,-2575
599667227031858432,-2532
599667227039546112,-2464
599667227047233920,-2367
599667227054921600,-2226
599667227062609408,-2120
599667227070297088,-2047
599667227077984896,-1917
599667227085672704,-1778
599667227093360384,-1726
599667227101048192,-1656
599667227108735872,-1524
599667227116423680,-1441
599667227124111360,-1349
599667227131799100,-1196
599667227139486592,-1123
599667227147174144,-1112
599667227154861824,-1036
599667227162549376,-935
599667227170237056,-888
599667227177924608,-855
599667227185612288,-793
599667227193299840,-751
599667227200987520,-676
599667227208675072,-527
599667227216362752,-471
599667227224050304,-548
599667227231737856,-539
599667227239425536,-388
599667227247113088,-388
599667227254800768,-548
599667227262488320,-593
599667227270176000,-355
599667227277863552,275
599667227285551232,1100
599667227293238784,1366
599667227300926336,732
599667227308614016,51
599667227316301568,-84
599667227323989248,-134
599667227331676800,-171
599667227339364480,-32
599667227347052032,-2
599667227354739712,-56
599667227362427264,18
599667227370114944,65
599667227377802496,11
599667227385490048,89
599667227393177728,214
599667227400865280,143
599667227408552960,124
599667227416240512,221
599667227423928192,174
599667227431615744,129
599667227439303424,219
599667227446990976,212
599667227454678528,143
599667227462366208,179
599667227470053760,202
599667227477741440,157
599667227485428992,160
599667227493116672,157
599667227500804224,122
599667227508491904,127
599667227516179456,82
599667227523867136,37
599667227531554688,80
599667227539242240,89
599667227546929920,73
599667227554617472,113
599667227562305152,115
599667227569992704,73
599667227577680384,110
599667227585367936,169
599667227593055616,148
599667227600743168,124
599667227608430720,136
599667227616118400,108
599667227623805952,68
599667227631493632,70
599667227639181184,56
599667227646868864,25
599667227654556416,40
599667227662244096,75
599667227669931648,96
599667227677619328,120
599667227685306880,146
599667227692994602,174
599667227700682240,221
599667227708369920,233
599667227716057600,214
599667227723745280,237
599667227731432960,254
599667227739120640,204
599667227746808320,186
599667227754496000,204
599667227762183680,169
599667227769871360,101
599667227777559040,28
599667227785246720,-82
599667227792934400,-186
599667227800622080,-233
599667227808309760,-275
599667227815997440,-334
599667227823685120,-341
599667227831372800,-327
599667227839060480,-334
599667227846748160,-332
599667227854435840,-315
599667227862123520,-306
599667227869811200,-306
599667227877498880,-287
599667227885186560,-233
599667227892874240,-176
599667227900561920,-171
599667227908249600,-176
599667227915937280,-148
599667227923624960,-120
599667227931312640,-98
599667227939000320,-54
599667227946688000,16
599667227954375680,73
599667227962063360,139
599667227969751040,240
599667227977438720,339
599667227985126400,409
599667227992814080,471
599667228000501760,523
599667228008189440,560
599667228015877120,596
599667228023564800,631
599667228031252480,666
599667228038940160,690
599667228046627840,683
599667228054315520,678
599667228062003200,657
599667228069690880,593
599667228077378560,537
599667228085066240,506
599667228092753920,424
599667228100441600,223
599667228108129280,35
599667228115816960,148
599667228123504640,690
599667228131192320,1420
599667228138880000,1698
599667228146567680,1192
599667228154255360,525
599667228161943040,292
599667228169630720,233
599667228177318400,136
599667228185006080,120
599667228192693760,122
599667228200381440,84
599667228208069120,75
599667228215756800,82
599667228223444480,82
599667228231132160,91
599667228238819840,84
599667228246507520,73
599667228254195187,103
599667228261882752,134
599667228269570304,115
599667228277257856,103
599667228284945408,124
599667228292632960,141
599667228300320512,136
599667228308007936,134
599667228315695488,146
599667228323383040,167
599667228331070592,167
599667228338758144,146
599667228346445696,131
599667228354133248,124
599667228361820800,108
599667228369508352,87
599667228377195904,56
599667228384883328,42
599667228392570880,47
599667228400258432,14
599667228407945984,-65
599667228415633536,-129
599667228423321088,-181
599667228431008640,-242
599667228438696192,-285
599667228446383744,-313
599667228454071296,-369
599667228461758848,-426
599667228469446272,-457
599667228477133824,-492
599667228484821376,-534
599667228492508928,-553
599667228500196480,-563
599667228507884032,-565
599667228515571584,-560
599667228523259136,-579
599667228530946688,-591
599667228538634240,-563
599667228546321792,-546
599667228554009216,-560
599667228561696768,-563
599667228569384320,-558
599667228577071872,-567
599667228584759424,-567
599667228592446976,-551
599667228600134528,-544
599667228607822080,-544
599667228615509632,-539
599667228623197184,-530
599667228630884608,-508
599667228638572160,-492
599667228646259712,-490
599667228653947264,-478
599667228661634816,-466
599667228669322368,-457
599667228677009920,-433
599667228684697472,-419
599667228692385024,-424
599667228700072576,-407
599667228707760128,-376
599667228715447552,-372
599667228723135104,-374
599667228730822656,-358
599667228738510208,-343
599667228746197760,-343
599667228753885312,-334
599667228761572864,-320
599667228769260416,-310
599667228776947968,-303
599667228784635520,-278
599667228792322944,-237
599667228800010496,-212
599667228807698048,-186
599667228815385602,-164
599667228823073536,-176
599667228830761472,-188
599667228838449408,-171
599667228846137472,-141
599667228853825408,-115
599667228861513344,-124
599667228869201280,-139
599667228876889216,-120
599667228884577152,-98
599667228892265216,-103
599667228899953152,-110
599667228907641088,-136
599667228915329024,-263
599667228923016960,-464
599667228930704896,-435
599667228938392960,40
599667228946080896,796
599667228953768832,1253
599667228961456768,963
599667228969144704,336
599667228976832640,18
599667228984520704,-65
599667228992208640,-141
599667228999896576,-129
599667229007584512,-101
599667229015272448,-141
599667229022960384,-139
599667229030648448,-108
599667229038336384,-120
599667229046024320,-124
599667229053712256,-101
599667229061400192,-89
599667229069088256,-87
599667229076776192,-75
599667229084464128,-75
599667229092152064,-77
599667229099840000,-61
599667229107527936,-44
599667229115216000,-47
599667229122903936,-44
599667229130591872,-37
599667229138279808,-40
599667229145967744,-35
599667229153655680,-25
599667229161343744,-30
599667229169031680,-37
599667229176719616,-30
599667229184407552,-21
599667229192095488,-16
599667229199783424,-14
599667229207471488,-11
599667229215159424,-4
599667229222847360,2
599667229230535296,7
599667229238223232,21
599667229245911168,25
599667229253599232,18
599667229261287168,7
599667229268975104,-14
599667229276663040,-37
599667229284350976,-54
599667229292039040,-63
599667229299726976,-73
599667229307414912,-77
599667229315102848,-82
599667229322790784,-89
599667229330478720,-94
599667229338166784,-94
599667229345854720,-91
599667229353542656,-96
599667229361230592,-96
599667229368918528,-89
599667229376606539,-89
599667229384294144,-94
599667229391981696,-91
599667229399669248,-77
599667229407356800,-75
599667229415044352,-80
599667229422731904,-77
599667229430419328,-68
599667229438106880,-61
599667229445794432,-47
599667229453481984,-35
599667229461169536,-47
599667229468857088,-58
599667229476544640,-58
599667229484232192,-47
599667229491919744,-40
599667229499607296,-47
599667229507294720,-54
599667229514982272,-51
599667229522669824,-54
599667229530357376,-65
599667229538044928,-70
599667229545732480,-65
599667229553420032,-65
599667229561107584,-68
599667229568795136,-75
599667229576482688,-87
599667229584170240,-103
599667229591857664,-110
599667229599545216,-89
599667229607232768,-68
599667229614920320,-63
599667229622607872,-56
599667229630295424,-61
599667229637982976,-80
599667229645670528,-84
599667229653358080,-75
599667229661045632,-70
599667229668733184,-61
599667229676420608,-51
599667229684108160,-56
599667229691795712,-65
599667229699483264,-63
599667229707170816,-56
599667229714858368,-61
599667229722545920,-117
599667229730233472,-296
599667229737921024,-473
599667229745608576,-310
599667229753296000,296
599667229760983552,1024
599667229768671104,1258
599667229776358656,782
599667229784046208,202
599667229791733760,-21
599667229799421312,-96
599667229807108864,-136
599667229814796416,-113
599667229822483968,-129
599667229830171520,-171
599667229837858944,-157
599667229845546496,-131
599667229853234048,-134
599667229860921600,-136
599667229868609152,-122
599667229876296704,-122
599667229883984256,-141
599667229891671808,-139
599667229899359360,-117
599667229907046912,-115
599667229914734336,-127
599667229922421888,-122
599667229930109440,-101
599667229937796954,-101
599667229945484544,-122
599667229953172096,-122
599667229960859648,-98
599667229968547200,-98
599667229976234752,-124
599667229983922304,-127
599667229991609728,-115
599667229999297280,-108
599667230006984832,-101
599667230014672384,-120
599667230022359936,-131
599667230030047488,-110
599667230037735040,-98
599667230045422592,-94
599667230053110144,-80
599667230060797696,-87
599667230068485120,-98
599667230076172672,-98
599667230083860224,-117
599667230091547776,-164
599667230099235328,-188
599667230106922880,-176
599667230114610432,-176
599667230122297984,-202
599667230129985536,-197
599667230137673088,-181
599667230145360640,-195
599667230153048064,-207
599667230160735616,-200
599667230168423168,-183
599667230176110720,-169
599667230183798272,-183
599667230191485824,-193
599667230199173376,-164
599667230206860928,-155
599667230214548480,-176
599667230222236032,-176
599667230229923584,-169
599667230237611008,-171
599667230245298560,-157
599667230252986112,-155
599667230260673664,-167
599667230268361216,-146
599667230276048768,-146
599667230283736320,-174
599667230291423872,-171
599667230299111424,-153
599667230306798976,-157
599667230314486400,-200
599667230322173952,-207
599667230329861504,-155
599667230337549056,-136
599667230345236608,-143
599667230352924160,-131
599667230360611712,-131
599667230368299264,-155
599667230375986816,-160
599667230383674368,-127
599667230391361920,-115
599667230399049344,-148
599667230406736896,-188
599667230414424448,-193
599667230422112000,-143
599667230429799552,-101
599667230437487104,-139
599667230445174656,-155
599667230452862208,-94
599667230460549760,-82
599667230468237312,-134
599667230475924736,-160
599667230483612288,-134
599667230491299840,-108
599667230498987369,-127
599667230506674944,-150
599667230514362496,-136
599667230522050048,-127
599667230529737600,-148
599667230537425152,-176
599667230545112704,-273
599667230552800128,-504
599667230560487680,-629
599667230568175232,-303
599667230575862784,518
599667230583550336,1305
599667230591237888,1293
599667230598925440,626
599667230606612992,117
599667230614300544,-75
599667230621988096,-240
599667230629675520,-313
599667230637363072,-285
599667230645050624,-320
599667230652738176,-365
599667230660425728,-365
599667230668113280,-367
599667230675800832,-367
599667230683488384,-351
599667230691175936,-348
599667230698863488,-355
599667230706551040,-351
599667230714238464,-336
599667230721926016,-327
599667230729613568,-322
599667230737301120,-315
599667230744988672,-306
599667230752676224,-299
599667230760363776,-280
599667230768051328,-266
599667230775738880,-280
599667230783426432,-285
599667230791113984,-266
599667230798801408,-252
599667230806488960,-245
599667230814176512,-247
599667230821864064,-254
599667230829551616,-235
599667230837239168,-219
599667230844926720,-221
599667230852614272,-209
599667230860301824,-186
599667230867989376,-164
599667230875676800,-143
599667230883364352,-117
599667230891051904,-87
599667230898739456,-87
599667230906427008,-124
599667230914114560,-141
599667230921802112,-127
599667230929489664,-143
599667230937177216,-169
599667230944864768,-176
599667230952552320,-179
599667230960239744,-176
599667230967927296,-171
599667230975614848,-176
599667230983302400,-197
599667230990989952,-200
599667230998677504,-153
599667231006365056,-129
599667231014052608,-167
599667231021740160,-186
599667231029427712,-150
599667231037115136,-127
599667231044802688,-131
599667231052490240,-134
599667231060177784,-136
599667231067865344,-148
599667231075552896,-153
599667231083240448,-146
599667231090928000,-113
599667231098615552,-82
599667231106303104,-82
599667231113990528,-89
599667231121678080,-80
599667231129365632,-51
599667231137053184,-44
599667231144740736,-58
599667231152428288,-42
599667231160115840,-21
599667231167803392,-18
599667231175490944,-2
599667231183178496,16
599667231190865920,14
599667231198553472,21
599667231206241024,32
599667231213928576,37
599667231221616128,28
599667231229303680,35
599667231236991232,65
599667231244678784,96
599667231252366336,113
599667231260053888,110
599667231267741440,89
599667231275428864,75
599667231283116416,70
599667231290803968,77
599667231298491520,80
599667231306179072,75
599667231313866624,77
599667231321554176,82
599667231329241728,82
599667231336929280,77
599667231344616832,56
599667231352304384,-58
599667231359991808,-278
599667231367679360,-327
599667231375366912,98
599667231383054464,914
599667231390742016,1550
599667231398429568,1392
599667231406117120,671
599667231413804672,200
599667231421492224,94
599667231429179776,28
599667231436867200,14
599667231444554752,56
599667231452242304,40
599667231459929856,18
599667231467617408,40
599667231475304960,54
599667231482992512,65
599667231490680064,75
599667231498367616,61
599667231506055168,65
599667231513742720,94
599667231521430144,96
599667231529117696,89
599667231536805248,103
599667231544492800,117
599667231552180352,120
599667231559867904,127
599667231567555456,131
599667231575243008,129
599667231582930560,141
599667231590618112,164
599667231598305536,162
599667231605993088,136
599667231613680640,129
599667231621368199,150
599667231629056128,164
599667231636744064,169
599667231644432000,181
599667231652120064,179
599667231659808000,179
599667231667495936,202
599667231675183872,219
599667231682871808,228
599667231690559744,240
599667231698247808,245
599667231705935744,235
599667231713623680,216
599667231721311616,197
599667231728999552,193
599667231736687488,186
599667231744375552,164
599667231752063488,150
599667231759751424,157
599667231767439360,162
599667231775127296,155
599667231782815232,155
599667231790503296,162
599667231798191232,162
599667231805879168,164
599667231813567104,164
599667231821255040,162
599667231828942976,160
599667231836631040,160
599667231844318976,162
599667231852006912,169
599667231859694848,167
599667231867382784,167
599667231875070848,174
599667231882758784,176
599667231890446720,174
599667231898134656,174
599667231905822592,179
599667231913510528,186
599667231921198592,186
599667231928886528,179
599667231936574464,176
599667231944262400,174
599667231951950336,174
599667231959638272,171
599667231967326336,164
599667231975014272,153
599667231982702208,139
599667231990390144,127
599667231998078080,117
599667232005766016,124
599667232013454080,155
599667232021142016,181
599667232028829952,193
599667232036517888,190
599667232044205824,179
599667232051893760,164
599667232059581824,155
599667232067269760,157
599667232074957696,162
599667232082645632,157
599667232090333568,153
599667232098021632,150
599667232105709568,148
599667232113397504,148
599667232121085440,150
599667232128773376,101
599667232136461312,-80
599667232144149376,-285
599667232151837312,-183
599667232159525248,384
599667232167213184,1168
599667232174901120,1540
599667232182589136,1128
599667232190276736,492
599667232197964288,242
599667232205651968,179
599667232213339520,115
599667232221027200,139
599667232228714752,143
599667232236402432,77
599667232244089984,58
599667232251777664,75
599667232259465216,70
599667232267152896,70
599667232274840448,84
599667232282528000,80
599667232290215680,73
599667232297903232,77
599667232305590912,84
599667232313278464,84
599667232320966144,84
599667232328653696,87
599667232336341376,87
599667232344028928,84
599667232351716480,84
599667232359404160,82
599667232367091712,82
599667232374779392,77
599667232382466944,70
599667232390154624,70
599667232397842176,65
599667232405529856,61
599667232413217408,63
599667232420905088,70
599667232428592640,77
599667232436280192,80
599667232443967872,89
599667232451655424,103
599667232459343104,115
599667232467030656,129
599667232474718336,143
599667232482405888,136
599667232490093568,110
599667232497781120,98
599667232505468672,101
599667232513156352,94
599667232520843904,84
599667232528531584,80
599667232536219136,77
599667232543906816,77
599667232551594368,80
599667232559282048,84
599667232566969600,89
599667232574657280,89
599667232582344832,82
599667232590032384,82
599667232597720064,94
599667232605407616,96
599667232613095296,91
599667232620782848,91
599667232628470528,87
599667232636158080,82
599667232643845760,89
599667232651533312,96
599667232659220864,108
599667232666908544,124
599667232674596096,98
599667232682283776,25
599667232689971328,32
599667232697659008,113
599667232705346560,84
599667232713034240,25
599667232720721792,70
599667232728409472,87
599667232736097024,40
599667232743784638,32
599667232751472512,35
599667232759160448,28
599667232766848256,42
599667232774536192,63
599667232782224128,70
599667232789911936,80
599667232797599872,82
599667232805287680,58
599667232812975616,40
599667232820663552,44
599667232828351360,51
599667232836039296,47
599667232843727232,44
599667232851415040,44
599667232859102976,40
599667232866790784,35
599667232874478720,32
599667232882166656,16
599667232889854464,-80
599667232897542400,-287
599667232905230336,-372
599667232912918144,-21
599667232920606080,699
599667232928293888,1248
599667232935981824,1069
599667232943669760,417
599667232951357568,47
599667232959045504,-14
599667232966733440,-75
599667232974421248,-61
599667232982109184,-2
599667232989796992,-42
599667232997484928,-68
599667233005172864,-35
599667233012860672,-28
599667233020548608,-37
599667233028236544,-23
599667233035924352,-14
599667233043612288,-11
599667233051300096,-9
599667233058988032,-4
599667233066675968,4
599667233074363776,7
599667233082051712,7
599667233089739648,9
599667233097427456,16
599667233105115392,21
599667233112803200,28
599667233120491136,32
599667233128179072,32
599667233135866880,35
599667233143554816,40
599667233151242752,47
599667233158930560,49
599667233166618496,44
599667233174306432,42
599667233181994240,54
599667233189682176,65
599667233197369984,70
599667233205057920,70
599667233212745856,70
599667233220433664,70
599667233228121600,61
599667233235809536,37
599667233243497344,7
599667233251185280,-25
599667233258873088,-47
599667233266561024,-58
599667233274248960,-75
599667233281936768,-87
599667233289624704,-89
599667233297312640,-89
599667233305000484,-91
599667233312688000,-96
599667233320375552,-94
599667233328063104,-94
599667233335750656,-91
599667233343438208,-84
599667233351125760,-77
599667233358813184,-75
599667233366500736,-70
599667233374188288,-68
599667233381875840,-61
599667233389563392,-58
599667233397250944,-54
599667233404938496,-49
599667233412626048,-51
599667233420313600,-47
599667233428001152,-42
599667233435688576,-44
599667233443376128,-51
599667233451063680,-58
599667233458751232,-56
599667233466438784,-56
599667233474126336,-73
599667233481813888,-89
599667233489501440,-89
599667233497188992,-70
599667233504876544,-47
599667233512564096,-37
599667233520251520,-30
599667233527939072,-28
599667233535626624,-37
599667233543314176,-56
599667233551001728,-63
599667233558689280,-56
599667233566376832,-51
599667233574064384,-56
599667233581751936,-58
599667233589439488,-58
599667233597127040,-61
599667233604814464,-63
599667233612502016,-65
599667233620189568,-115
599667233627877120,-294
599667233635564672,-482
599667233643252224,-320
599667233650939776,320
599667233658627328,1057
599667233666314880,1225
599667233674002432,671
599667233681689856,101
599667233689377408,-70
599667233697064960,-141
599667233704752512,-181
599667233712440064,-120
599667233720127616,-115
599667233727815168,-167
599667233735502720,-155
599667233743190272,-139
599667233750877824,-150
599667233758565376,-146
599667233766252800,-134
599667233773940352,-141
599667233781627904,-139
599667233789315456,-124
599667233797003008,-122
599667233804690560,-124
599667233812378112,-120
599667233820065664,-117
599667233827753216,-113
599667233835440768,-115
599667233843128192,-115
599667233850815744,-113
599667233858503296,-113
599667233866190899,-113
599667233873878656,-115
599667233881566464,-117
599667233889254272,-117
599667233896942080,-117
599667233904629888,-117
599667233912317696,-115
599667233920005632,-113
599667233927693440,-110
599667233935381248,-108
599667233943069056,-98
599667233950756864,-87
599667233958444672,-80
599667233966132480,-77
599667233973820288,-91
599667233981508096,-115
599667233989195904,-134
599667233996883712,-153
599667234004571520,-169
599667234012259456,-183
599667234019947264,-190
599667234027635072,-193
599667234035322880,-195
599667234043010688,-202
599667234050698496,-202
599667234058386304,-193
599667234066074112,-188
599667234073761920,-186
599667234081449728,-183
599667234089137536,-176
599667234096825344,-169
599667234104513280,-164
599667234112201088,-162
599667234119888896,-153
599667234127576704,-143
599667234135264512,-146
599667234142952320,-148
599667234150640128,-148
599667234158327936,-153
599667234166015744,-155
599667234173703552,-153
599667234181391360,-153
599667234189079168,-153
599667234196767104,-153
599667234204454912,-160
599667234212142720,-164
599667234219830528,-167
599667234227518336,-160
599667234235206144,-139
599667234242893952,-113
599667234250581760,-96
599667234258269568,-87
599667234265957376,-96
599667234273645184,-115
599667234281332992,-117
599667234289020928,-108
599667234296708736,-103
599667234304396544,-101
599667234312084352,-96
599667234319772160,-94
599667234327459968,-94
599667234335147776,-94
599667234342835584,-94
599667234350523392,-153
599667234358211200,-343
599667234365899008,-518
599667234373586816,-336
599667234381274752,320
599667234388962560,1104
599667234396650368,1338
599667234404338176,822
599667234412025984,233
599667234419713792,23
599667234427401662,-73
599667234435089280,-146
599667234442776960,-120
599667234450464640,-131
599667234458152320,-176
599667234465840000,-162
599667234473527680,-141
599667234481215360,-148
599667234488903040,-141
599667234496590720,-120
599667234504278400,-110
599667234511966080,-108
599667234519653760,-101
599667234527341440,-94
599667234535029120,-94
599667234542716800,-87
599667234550404480,-77
599667234558092160,-75
599667234565779840,-68
599667234573467520,-61
599667234581155200,-58
599667234588842880,-58
599667234596530560,-58
599667234604218240,-56
599667234611905920,-54
599667234619593600,-51
599667234627281280,-44
599667234634968960,-40
599667234642656640,-35
599667234650344320,-28
599667234658032000,-21
599667234665719680,-11
599667234673407360,0
599667234681095040,14
599667234688782720,25
599667234696470400,28
599667234704158080,21
599667234711845760,7
599667234719533440,-2
599667234727221120,-11
599667234734908800,-21
599667234742596480,-28
599667234750284160,-32
599667234757971840,-30
599667234765659520,-30
599667234773347200,-28
599667234781034880,-25
599667234788722560,-25
599667234796410240,-28
599667234804097920,-23
599667234811785600,-16
599667234819473280,-21
599667234827160960,-23
599667234834848640,-23
599667234842536320,-18
599667234850224000,-16
599667234857911680,-14
599667234865599360,-16
599667234873287040,-14
599667234880974720,-9
599667234888662400,-4
599667234896350080,-4
599667234904037760,-9
599667234911725440,-11
599667234919413120,-16
599667234927100800,-23
599667234934788480,-25
599667234942476160,-21
599667234950163840,-7
599667234957851520,16
599667234965539200,32
599667234973226880,47
