599616344708786560,-5571
599616344716473216,-5487
599616344724160000,-5364
599616344731846656,-5161
599616344739533312,-4926
599616344747220096,-4768
599616344754906752,-4638
599616344762593536,-4365
599616344770280192,-4125
599616344777966848,-4134
599616344785653632,-4174
599616344793340288,-4337
599616344801026944,-4754
599616344808713728,-5121
599616344816400384,-6165
599616344824087168,-8674
599616344831773824,-10639
599616344839460480,-11002
599616344847147264,-11789
599616344854833920,-13235
599616344862520576,-13572
599616344870207360,-12644
599616344877894016,-11756
599616344885580800,-10851
599616344893267456,-9513
599616344900954112,-8594
599616344908640896,-8083
599616344916327552,-7418
599616344924014208,-7063
599616344931700992,-7124
599616344939387648,-6952
599616344947074432,-6898
599616344954761088,-7402
599616344962447744,-6789
599616344970134528,-3715
599616344977821184,-454
599616344985507840,233
599616344993194624,-758
599616345000881280,-1597
599616345008568064,-2586
599616345016254720,-4026
599616345023941376,-5293
599616345031628160,-6262
599616345039314816,-6690
599616345047001472,-6295
599616345054688256,-5703
599616345062374912,-5439
599616345070061696,-5230
599616345077748352,-4638
599616345085435008,-3967
599616345093121792,-3809
599616345100808448,-3969
599616345108495104,-4054
599616345116181888,-4094
599616345123868544,-4108
599616345131555328,-3851
599616345139241984,-3270
599616345146928640,-2551
599616345154615424,-1936
599616345162302080,-1404
599616345169988736,-563
599616345177675520,171
599616345185362176,374
599616345193048960,676
599616345200735616,1283
599616345208422272,1915
599616345216109056,2666
599616345223795712,3661
599616345231482368,4700
599616345239169152,5395
599616345246855808,5741
599616345254542592,6170
599616345262229298,6646
599616345269915904,6952
599616345277602560,7334
599616345285289344,7812
599616345292976000,8354
599616345300662656,8969
599616345308349440,9277
599616345316036096,9414
599616345323722880,9913
599616345331409536,10813
599616345339096192,11612
599616345346782976,11579
599616345354469632,11202
599616345362156288,12147
599616345369843072,14310
599616345377529728,14979
599616345385216512,13143
599616345392903168,11725
599616345400589824,12288
599616345408276608,13539
599616345415963264,14712
599616345423649920,15174
599616345431336704,15525
599616345439023360,17879
599616345446710144,19297
599616345454396800,19297
599616345462083456,19297
599616345469770240,19297
599616345477456896,19297
599616345485143552,19297
599616345492830336,19297
599616345500516992,19297
599616345508203776,19297
599616345515890432,19297
599616345523577088,19297
599616345531263872,19297
599616345538950528,19297
599616345546637184,19297
599616345554323968,19297
599616345562010624,19297
599616345569697408,19297
599616345577384064,19297
599616345585070720,19297
599616345592757504,19297
599616345600444160,19297
599616345608130816,19297
599616345615817600,19297
599616345623504256,19297
599616345631191040,19297
599616345638877696,19297
599616345646564352,19297
599616345654251136,19297
599616345661937792,19297
599616345669624448,19297
599616345677311232,19297
599616345684997888,19297
599616345692684672,19297
599616345700371328,19297
599616345708057984,19297
599616345715744768,19297
599616345723431424,19297
599616345731118080,19297
599616345738804864,19297
599616345746491520,19297
599616345754178304,19297
599616345761864960,19297
599616345769551616,19297
599616345777238400,19297
599616345784925056,19297
599616345792611712,19297
599616345800298496,19297
599616345807985152,19297
599616345815671936,19297
599616345823358677,19297
599616345831045376,19297
599616345838732032,19297
599616345846418816,19297
599616345854105472,19297
599616345861792128,19297
599616345869478912,19297
599616345877165568,19297
599616345884852352,19297
599616345892539008,19297
599616345900225664,19297
599616345907912448,19297
599616345915599104,19297
599616345923285760,19297
599616345930972544,19297
599616345938659200,19297
599616345946345984,19297
599616345954032640,19297
599616345961719296,19297
599616345969406080,19297
599616345977092736,19297
599616345984779392,19297
599616345992466176,19297
599616346000152832,19297
599616346007839616,19297
599616346015526272,19297
599616346023212928,19297
599616346030899712,19297
599616346038586368,19297
599616346046273024,19297
599616346053959808,19297
599616346061646464,19297
599616346069333248,19297
599616346077019904,19297
599616346084706560,19297
599616346092393344,19297
599616346100080000,19297
599616346107766656,19297
599616346115453440,19297
599616346123140096,19297
599616346130826880,19297
599616346138513536,19297
599616346146200192,19297
599616346153886976,19297
599616346161573632,19297
599616346169260288,19297
599616346176947072,19297
599616346184633728,19297
599616346192320512,19297
599616346200007168,19297
599616346207693824,18821
599616346215380608,16736
599616346223067264,14493
599616346230753920,9690
599616346238440704,-10839
599616346246127360,-19300
599616346253814144,-19300
599616346261500800,-19300
599616346269187456,-19300
599616346276874240,-19300
599616346284560896,-19300
599616346292247552,-19300
599616346299934336,-19300
599616346307620992,-19300
599616346315307776,-19300
599616346322994432,-19300
599616346330681088,-19300
599616346338367872,-19300
599616346346054528,-19300
599616346353741184,-19300
599616346361427968,-19300
599616346369114624,-19300
599616346376801408,-19300
599616346384488056,-19300
599616346392174720,-19300
599616346399861376,-19300
599616346407548160,-19300
599616346415234816,-11303
599616346422921472,-3694
599616346430608256,-7334
599616346438294912,-8971
599616346445981696,-7117
599616346453668352,-8594
599616346461355008,-11548
599616346469041792,-12955
599616346476728448,-13659
599616346484415104,-13801
599616346492101888,-12538
599616346499788544,-9209
599616346507475328,-4787
599616346515161984,-2466
599616346522848640,-3376
599616346530535424,-5470
599616346538222080,-7305
599616346545908736,-9070
599616346553595520,-10601
599616346561282176,-11056
599616346568968960,-10575
599616346576655616,-9369
599616346584342272,-6283
599616346592029056,-751
599616346599715712,6398
599616346607402368,14138
599616346615089152,19297
599616346622775808,19297
599616346630462592,19297
599616346638149248,19297
599616346645835904,19297
599616346653522688,19297
599616346661209344,19297
599616346668896000,19297
599616346676582784,19297
599616346684269440,19297
599616346691956224,19297
599616346699642880,19297
599616346707329536,19297
599616346715016320,8427
599616346722702976,1003
599616346730389632,3908
599616346738076416,12474
599616346745763072,16352
599616346753449856,13843
599616346761136512,8603
599616346768823168,5062
599616346776509952,6509
599616346784196608,7303
599616346791883264,-4563
599616346799570048,-19300
599616346807256704,-19300
599616346814943488,-19300
599616346822630144,-19300
599616346830316800,-19300
599616346838003584,-19300
599616346845690240,-19300
599616346853376896,-12590
599616346861063680,-6344
599616346868750336,-8820
599616346876437120,-7176
599616346884123776,-2772
599616346891810432,-1792
599616346899497216,7774
599616346907183872,19297
599616346914870528,19297
599616346922557312,19297
599616346930243968,19297
599616346937930752,19297
599616346945617439,19297
599616346953303680,15608
599616346960989952,-4582
599616346968676224,-19300
599616346976362496,-19300
599616346984048768,-19300
599616346991735168,-19300
599616346999421440,-19300
599616347007107712,-19300
599616347014793984,-19300
599616347022480256,-19300
599616347030166528,-19300
599616347037852800,-19300
599616347045539072,-19300
599616347053225344,-19300
599616347060911744,-19300
599616347068598016,-19300
599616347076284288,-19300
599616347083970560,-19300
599616347091656832,-19300
599616347099343104,-19300
599616347107029376,-19300
599616347114715648,-19300
599616347122401920,-19300
599616347130088192,-19300
599616347137774592,-19300
599616347145460864,-19300
599616347153147136,-19300
599616347160833408,-19300
599616347168519680,-19300
599616347176205952,-19300
599616347183892224,-19300
599616347191578496,-19300
599616347199264768,-19300
599616347206951168,-19300
599616347214637440,-19300
599616347222323712,-19300
599616347230009984,-19300
599616347237696256,-17059
599616347245382528,-13546
599616347253068800,-12552
599616347260755072,-14086
599616347268441344,-13379
599616347276127744,-10590
599616347283814016,-8615
599616347291500288,-6577
599616347299186560,-5242
599616347306872832,-5847
599616347314559104,-5404
599616347322245376,-5315
599616347329931648,-11164
599616347337617920,-16842
599616347345304192,-10886
599616347352990592,-2419
599616347360676864,-7597
599616347368363136,-15125
599616347376049408,-14573
599616347383735680,-15652
599616347391421952,-15480
599616347399108224,-9499
599616347406794496,-5340
599616347414480768,-4177
599616347422167168,-3519
599616347429853440,-2476
599616347437539712,23
599616347445225984,-252
599616347452912256,-5053
599616347460598528,-8125
599616347468284800,-6662
599616347475971072,-4186
599616347483657344,-4092
599616347491343744,-6563
599616347499030016,-8964
599616347506716300,-8964
599616347514402816,-7171
599616347522089344,-6111
599616347529775744,-6836
599616347537462272,-7294
599616347545148800,-6306
599616347552835328,-5244
599616347560521728,-4323
599616347568208256,-3390
599616347575894784,-3573
599616347583581312,-4572
599616347591267712,-5062
599616347598954240,-5128
599616347606640768,-5277
599616347614327296,-5286
599616347622013696,-4865
599616347629700224,-3948
599616347637386752,-2560
599616347645073280,-970
599616347652759680,296
599616347660446208,1248
599616347668132736,2492
599616347675819264,4139
599616347683505664,5734
599616347691192192,6665
599616347698878720,6149
599616347706565248,4940
599616347714251648,5256
599616347721938176,6983
599616347729624704,8062
599616347737311104,8234
599616347744997632,8455
599616347752684160,8870
599616347760370688,9379
599616347768057088,10069
599616347775743616,10554
599616347783430144,10123
599616347791116672,9089
599616347798803072,8177
599616347806489600,7409
599616347814176128,6841
599616347821862656,6561
599616347829549056,6526
599616347837235584,6877
599616347844922112,8120
599616347852608640,10029
599616347860295040,10705
599616347867981568,9972
599616347875668096,7654
599616347883354624,2264
599616347891041024,-306
599616347898727552,3319
599616347906414080,6827
599616347914100608,7911
599616347921787008,8660
599616347929473536,9857
599616347937160064,4089
599616347944846464,-11221
599616347952532992,-19300
599616347960219520,-19300
599616347967906048,-19300
599616347975592448,-19300
599616347983278976,-19300
599616347990965504,-19300
599616347998652032,-19300
599616348006338432,-17247
599616348014024960,-5651
599616348021711488,624
599616348029398016,12104
599616348037084416,17306
599616348044770944,10396
599616348052457472,9659
599616348060144000,15841
599616348067830422,19297
599616348075516416,19297
599616348083202432,10820
599616348090888576,-3467
599616348098574592,-8834
599616348106260736,-8297
599616348113946752,-9859
599616348121632896,-9982
599616348129318912,-6935
599616348137005056,-7322
599616348144691072,-14790
599616348152377216,-19300
599616348160063232,-19128
599616348167749376,-17641
599616348175435392,-19300
599616348183121536,-19300
599616348190807552,-19300
599616348198493696,-19300
599616348206179712,-19300
599616348213865856,-19300
599616348221551872,-19300
599616348229237888,-19300
599616348236924032,-19300
599616348244610048,-19300
599616348252296192,-19300
599616348259982208,-17806
599616348267668352,-14467
599616348275354368,-12969
599616348283040512,-13238
599616348290726528,-13216
599616348298412672,-12724
599616348306098688,-13129
599616348313784832,-14498
599616348321470848,-15902
599616348329156992,-16435
599616348336843008,-15733
599616348344529152,-15758
599616348352215168,-16840
599616348359901312,-16656
599616348367587328,-15867
599616348375273344,-15735
599616348382959488,-15457
599616348390645504,-15127
599616348398331648,-14668
599616348406017664,-13440
599616348413703808,-12389
599616348421389824,-11812
599616348429075968,-10380
599616348436761984,-7991
599616348444448128,-5640
599616348452134144,-3390
599616348459820288,-391
599616348467506304,2761
599616348475192448,3965
599616348482878464,2212
599616348490564608,-261
599616348498250624,-148
599616348505936768,511
599616348513622784,-1467
599616348521308928,-3343
599616348528994944,-2638
599616348536680960,-1300
599616348544367104,-360
599616348552053120,440
599616348559739264,607
599616348567425280,4872
599616348575111424,15400
599616348582797440,19250
599616348590483584,11454
599616348598169600,6165
599616348605855744,7795
599616348613541760,8672
599616348621227904,8542
599616348628914022,10340
599616348636600320,11885
599616348644286592,11480
599616348651972864,10889
599616348659659136,10769
599616348667345408,9970
599616348675031808,8735
599616348682718080,8118
599616348690404352,7908
599616348698090624,7588
599616348705776896,7352
599616348713463168,7400
599616348721149440,7668
599616348728835712,7953
599616348736521984,8102
599616348744208384,8168
599616348751894656,8102
599616348759580928,7904
599616348767267200,7826
599616348774953472,7890
599616348782639744,7824
599616348790326016,7590
599616348798012288,7466
599616348805698560,7527
599616348813384832,7543
599616348821071232,7480
599616348828757504,7527
599616348836443776,7694
599616348844130048,7892
599616348851816320,8106
599616348859502592,8219
599616348867188864,8196
599616348874875136,8153
599616348882561408,7996
599616348890247808,7715
599616348897934080,7477
599616348905620352,7286
599616348913306624,7263
599616348920992896,7451
599616348928679168,7341
599616348936365440,6841
599616348944051712,6712
599616348951737984,6806
599616348959424384,6339
599616348967110656,5583
599616348974796928,5025
599616348982483200,4634
599616348990169472,4400
599616348997855744,4290
599616349005542016,4271
599616349013228288,4353
599616349020914560,4410
599616349028600832,4396
599616349036287232,4426
599616349043973504,4497
599616349051659776,4577
599616349059346048,4678
599616349067032320,4766
599616349074718592,4876
599616349082404864,5022
599616349090091136,5107
599616349097777408,5194
599616349105463808,5364
599616349113150080,5510
599616349120836352,5602
599616349128522624,5746
599616349136208896,5849
599616349143895168,5699
599616349151581440,5477
599616349159267712,5578
599616349166953984,5809
599616349174640384,5849
599616349182326656,6019
599616349190012883,6422
599616349197699584,6669
599616349205386240,6867
599616349213073024,7360
599616349220759680,7845
599616349228446336,8123
599616349236133120,8570
599616349243819776,9124
599616349251506560,9414
599616349259193216,9690
599616349266879872,10361
599616349274566656,11223
599616349282253312,11982
599616349289939968,12854
599616349297626752,13732
599616349305313408,13732
599616349313000192,13066
599616349320686848,13143
599616349328373504,13867
599616349336060288,14760
599616349343746944,16788
599616349351433600,19297
599616349359120384,19297
599616349366807040,19297
599616349374493824,19297
599616349382180480,19297
599616349389867136,19297
599616349397553920,19297
599616349405240576,18645
599616349412927232,18614
599616349420614016,19297
599616349428300672,19297
599616349435987456,19297
599616349443674112,19297
599616349451360768,18025
599616349459047552,14781
599616349466734208,9023
599616349474420864,1314
599616349482107648,-7162
599616349489794304,-16604
599616349497481088,-19300
599616349505167744,-15278
599616349512854400,-6396
599616349520541184,-2132
599616349528227840,1896
599616349535914496,3350
599616349543601280,683
599616349551287936,-3460
599616349558974720,-6693
599616349566661376,-2374
599616349574348032,4919
599616349582034816,4306
599616349589721472,1100
599616349597408128,-1865
599616349605094912,-9852
599616349612781568,-11473
599616349620468352,-909
599616349628155008,5053
599616349635841664,3046
599616349643528448,4042
599616349651215104,6730
599616349658901760,8533
599616349666588544,13890
599616349674275200,19297
599616349681961984,19297
599616349689648640,19297
599616349697335296,19297
599616349705022080,19163
599616349712708736,7892
599616349720395392,-10769
599616349728082176,-19300
599616349735768832,-19300
599616349743455616,-19300
599616349751142262,-19300
599616349758828544,-19300
599616349766514816,-19300
599616349774201088,-19300
599616349781887360,-19300
599616349789573632,-19300
599616349797260032,-19300
599616349804946304,-19300
599616349812632576,-19300
599616349820318848,-19300
599616349828005120,-19300
599616349835691392,-19300
599616349843377664,-19300
599616349851063936,-19300
599616349858750208,-19300
599616349866436608,-19300
599616349874122880,-19300
599616349881809152,-19300
599616349889495424,-19300
599616349897181696,-19300
599616349904867968,-19300
599616349912554240,-19300
599616349920240512,-19300
599616349927926784,-18998
599616349935613056,-16571
599616349943299456,-15681
599616349950985728,-16197
599616349958672000,-16578
599616349966358272,-16350
599616349974044544,-16077
599616349981730816,-15459
599616349989417088,-13513
599616349997103360,-11572
599616350004789632,-11146
599616350012476032,-11661
599616350020162304,-12258
599616350027848576,-11598
599616350035534848,-9704
599616350043221120,-7911
599616350050907392,-6297
599616350058593664,-4059
599616350066279936,-162
599616350073966208,4415
599616350081652608,6170
599616350089338880,5074
599616350097025152,4789
599616350104711424,5227
599616350112397696,4323
599616350120083968,3430
599616350127770240,3305
599616350135456512,2254
599616350143142784,1036
599616350150829184,1144
599616350158515456,1020
599616350166201728,-556
599616350173888000,-2160
599616350181574272,-1946
599616350189260544,-209
599616350196946816,3201
599616350204633088,15035
599616350212319360,19297
599616350220005632,19297
599616350227692032,19297
599616350235378304,19297
599616350243064576,19297
599616350250750848,13454
599616350258437120,7374
599616350266123392,3988
599616350273809664,746
599616350281495936,-930
599616350289182208,-1024
599616350296868608,-1133
599616350304554880,-1276
599616350312241127,-1104
599616350319927040,-973
599616350327612928,-1090
599616350335298816,-1415
599616350342984704,-1811
599616350350670464,-1967
599616350358356352,-1840
599616350366042240,-1649
599616350373728128,-1422
599616350381414016,-1232
599616350389099904,-1232
599616350396785664,-1199
599616350404471552,-772
599616350412157440,-221
599616350419843328,2
599616350427529216,89
599616350435215104,320
599616350442900864,553
599616350450586752,817
599616350458272640,1368
599616350465958528,1943
599616350473644416,2094
599616350481330304,1941
599616350489016192,1811
599616350496701952,1724
599616350504387840,1675
599616350512073728,1795
599616350519759616,1960
599616350527445504,1887
599616350535131392,1729
599616350542817152,1684
599616350550503040,1496
599616350558188928,1173
599616350565874816,1020
599616350573560704,980
599616350581246592,949
599616350588932352,1071
599616350596618240,1312
599616350604304128,1422
599616350611990016,1382
599616350619675904,1335
599616350627361792,1253
599616350635047680,951
599616350642733440,629
599616350650419328,586
599616350658105216,570
599616350665791104,402
599616350673476992,268
599616350681162880,164
599616350688848640,84
599616350696534528,70
599616350704220416,63
599616350711906304,73
599616350719592192,73
599616350727278080,49
599616350734963840,127
599616350742649728,247
599616350750335616,266
599616350758021504,294
599616350765707392,424
599616350773393280,475
599616350781079040,504
599616350788764928,659
599616350796450816,749
599616350804136704,770
599616350811822592,857
599616350819508480,925
599616350827194368,998
599616350834880128,1119
599616350842566016,1185
599616350850251904,1218
599616350857937792,1302
599616350865623680,1430
599616350873309470,1538
599616350880996096,1623
599616350888682752,1762
599616350896369536,2007
599616350904056192,2254
599616350911742848,2412
599616350919429632,2565
599616350927116288,2775
599616350934803072,3001
599616350942489728,3350
599616350950176384,3800
599616350957863168,4153
599616350965549824,4462
599616350973236480,4782
599616350980923264,4978
599616350988609920,4938
599616350996296704,4650
599616351003983360,4358
599616351011670016,4433
599616351019356800,4850
599616351027043456,5303
599616351034730112,5649
599616351042416896,5871
599616351050103552,5995
599616351057790336,6137
599616351065476992,6259
599616351073163648,6247
599616351080850432,6196
599616351088537088,6087
599616351096223744,5753
599616351103910528,5274
599616351111597184,4792
599616351119283968,4278
599616351126970624,3814
599616351134657280,3489
599616351142344064,3234
599616351150030720,3060
599616351157717376,3015
599616351165404160,3032
599616351173090816,3095
599616351180777600,3192
599616351188464256,3253
599616351196150912,3298
599616351203837696,3366
599616351211524352,3442
599616351219211008,3536
599616351226897792,3642
599616351234584448,3755
599616351242271232,3880
599616351249957888,3986
599616351257644544,4115
599616351265331328,4391
599616351273017984,4848
599616351280704640,5458
599616351288391424,6160
599616351296078080,6825
599616351303764864,7463
599616351311451520,8215
599616351319138176,9006
599616351326824960,9826
599616351334511616,10766
599616351342198272,11753
599616351349885056,12658
599616351357571712,13141
599616351365258496,13056
599616351372945152,12790
599616351380631808,12486
599616351388318592,12064
599616351396005248,11687
599616351403691904,11452
599616351411378688,11367
599616351419065344,11515
599616351426752128,11810
599616351434438849,12027
599616351442125440,12163
599616351449811968,12307
599616351457498624,12335
599616351465185152,12324
599616351472871680,12432
599616351480558208,12239
599616351488244864,11586
599616351495931392,11084
599616351503617920,10943
599616351511304576,10865
599616351518991104,10764
599616351526677632,10738
599616351534364160,10802
599616351542050816,10844
599616351549737344,10783
599616351557423872,10721
599616351565110528,10893
599616351572797056,11108
599616351580483584,10858
599616351588170112,10069
599616351595856768,9004
599616351603543296,8040
599616351611229824,7527
599616351618916480,7428
599616351626603008,7501
599616351634289536,7718
599616351641976064,8043
599616351649662720,8248
599616351657349248,8271
599616351665035776,8104
599616351672722432,7640
599616351680408960,7039
599616351688095488,6789
599616351695782016,6928
599616351703468672,7044
599616351711155200,7296
599616351718841728,8010
599616351726528384,8773
599616351734214912,9232
599616351741901440,9520
599616351749587968,9510
599616351757274624,9223
599616351764961152,8997
599616351772647680,8505
599616351780334336,7272
599616351788020864,5826
599616351795707392,4747
599616351803393920,3875
599616351811080576,3314
599616351818767104,3295
599616351826453632,3383
599616351834140288,3354
599616351841826816,3538
599616351849513344,3903
599616351857199872,4184
599616351864886528,4334
599616351872573056,4259
599616351880259584,3753
599616351887946240,2902
599616351895632768,2004
599616351903319296,1161
599616351911005824,461
599616351918692480,77
599616351926379008,-2
599616351934065536,143
599616351941752192,567
599616351949438720,1274
599616351957125248,2099
599616351964811776,2947
599616351972498432,3741
599616351980184960,4205
599616351987871488,4233
599616351995558058,3958
599616352003244416,3524
599616352010930816,3098
599616352018617216,2681
599616352026303744,2150
599616352033990144,1644
599616352041676544,1375
599616352049362944,1319
599616352057049344,1408
599616352064735872,1597
599616352072422272,1792
599616352080108672,1894
599616352087795072,1962
599616352095481472,2016
599616352103168000,1946
599616352110854400,1766
599616352118540800,1592
599616352126227200,1427
599616352133913600,1276
599616352141600128,1137
599616352149286528,958
599616352156972928,739
599616352164659328,530
599616352172345728,379
599616352180032256,207
599616352187718656,-188
599616352195405056,-709
599616352203091456,-1017
599616352210777856,-1135
599616352218464256,-1302
599616352226150784,-1498
599616352233837184,-1613
599616352241523584,-1717
599616352249209984,-1844
599616352256896384,-1905
599616352264582912,-1924
599616352272269312,-1969
599616352279955712,-1974
599616352287642112,-1936
599616352295328512,-1927
599616352303015040,-1943
599616352310701440,-1938
599616352318387840,-1901
599616352326074240,-1861
599616352333760640,-1823
599616352341447168,-1774
599616352349133568,-1731
599616352356819968,-1689
599616352364506368,-1609
599616352372192768,-1503
599616352379879296,-1411
599616352387565696,-1347
599616352395252096,-1305
599616352402938496,-1253
599616352410624896,-1192
599616352418311424,-1154
599616352425997824,-1133
599616352433684224,-1116
599616352441370624,-1116
599616352449057024,-1126
599616352456743552,-1133
599616352464429952,-1130
599616352472116352,-1104
599616352479802752,-1090
599616352487489152,-1076
599616352495175680,-1034
599616352502862080,-996
599616352510548480,-982
599616352518234880,-965
599616352525921280,-951
599616352533607808,-932
599616352541294208,-914
599616352548980608,-904
599616352556667089,-874
599616352564353792,-838
599616352572040448,-826
599616352579727232,-805
599616352587413888,-765
599616352595100544,-735
599616352602787328,-709
599616352610473984,-678
599616352618160768,-654
599616352625847424,-633
599616352633534080,-598
599616352641220864,-565
599616352648907520,-537
599616352656594176,-508
599616352664280960,-482
599616352671967616,-464
599616352679654400,-452
599616352687341056,-433
599616352695027712,-400
599616352702714496,-365
599616352710401152,-341
599616352718087808,-334
599616352725774592,-348
599616352733461248,-346
599616352741148032,-306
599616352748834688,-280
599616352756521344,-278
599616352764208128,-261
599616352771894784,-247
599616352779581440,-240
599616352787268224,-221
599616352794954880,-204
599616352802641664,-197
599616352810328320,-164
599616352818014976,-190
599616352825701760,-426
599616352833388416,-692
599616352841075072,-673
599616352848761856,-459
599616352856448512,-296
599616352864135296,-157
599616352871821952,-18
599616352879508608,11
599616352887195392,-18
599616352894882048,-9
599616352902568704,2
599616352910255488,-7
599616352917942144,4
599616352925628928,21
599616352933315584,16
599616352941002240,21
599616352948689024,42
599616352956375680,49
599616352964062336,54
599616352971749120,73
599616352979435776,89
599616352987122560,98
599616352994809216,117
599616353002495872,139
599616353010182656,153
599616353017869312,164
599616353025555968,186
599616353033242752,200
599616353040929408,209
599616353048616192,214
599616353056302848,219
599616353063989504,216
599616353071676288,202
599616353079362944,186
599616353087049600,169
599616353094736384,146
599616353102423040,127
599616353110109824,120
599616353117796468,110
599616353125482752,113
599616353133169024,129
599616353140855296,141
599616353148541568,146
599616353156227840,153
599616353163914240,162
599616353171600512,183
599616353179286784,207
599616353186973056,216
599616353194659328,226
599616353202345600,240
599616353210031872,249
599616353217718144,266
599616353225404416,273
599616353233090816,261
599616353240777088,254
599616353248463360,270
599616353256149632,285
599616353263835904,287
599616353271522176,292
599616353279208448,299
599616353286894720,296
599616353294580992,289
599616353302267264,287
599616353309953664,289
599616353317639936,287
599616353325326208,278
599616353333012480,270
599616353340698752,263
599616353348385024,261
599616353356071296,261
599616353363757568,254
599616353371443840,245
599616353379130240,249
599616353386816512,259
599616353394502784,270
599616353402189056,285
599616353409875328,282
599616353417561600,259
599616353425247872,247
599616353432934144,259
599616353440620416,270
599616353448306816,275
599616353455993088,285
599616353463679360,289
599616353471365632,285
599616353479051904,299
599616353486738176,310
599616353494424448,315
599616353502110720,343
599616353509796992,320
599616353517483392,68
599616353525169664,-242
599616353532855936,-235
599616353540542208,-2
599616353548228480,155
599616353555914752,299
599616353563601024,464
599616353571287296,480
599616353578973568,428
599616353586659840,435
599616353594346240,435
599616353602032512,405
599616353609718784,384
599616353617405056,379
599616353625091328,367
599616353632777600,348
599616353640463872,343
599616353648150144,343
599616353655836416,348
599616353663522816,358
599616353671209088,365
599616353678895333,374
599616353686582016,386
599616353694268672,386
599616353701955456,386
599616353709642112,398
599616353717328768,414
599616353725015552,417
599616353732702208,409
599616353740388992,391
599616353748075648,367
599616353755762304,362
599616353763449088,355
599616353771135744,329
599616353778822400,299
599616353786509184,256
599616353794195840,212
599616353801882624,200
599616353809569280,193
599616353817255936,176
599616353824942720,176
599616353832629376,179
599616353840316032,179
599616353848002816,193
599616353855689472,214
599616353863376256,223
599616353871062912,233
599616353878749568,240
599616353886436352,240
599616353894123008,256
599616353901809664,278
599616353909496448,273
599616353917183104,266
599616353924869888,270
599616353932556544,268
599616353940243200,263
599616353947929984,261
599616353955616640,249
599616353963303296,235
599616353970990080,233
599616353978676736,226
599616353986363520,202
599616353994050176,171
599616354001736832,143
599616354009423616,120
599616354017110272,87
599616354024796928,54
599616354032483712,37
599616354040170368,9
599616354047857152,-18
599616354055543808,-21
599616354063230464,-14
599616354070917248,-11
599616354078603904,-21
599616354086290560,-40
599616354093977344,-40
599616354101664000,-25
599616354109350784,-25
599616354117037440,-28
599616354124724096,-28
599616354132410880,-30
599616354140097536,-32
599616354147784192,-30
599616354155470976,-28
599616354163157632,-35
599616354170844416,-21
599616354178531072,-18
599616354186217728,-212
599616354193904512,-548
599616354201591168,-633
599616354209277824,-431
599616354216964608,-292
599616354224651264,-212
599616354232338048,-44
599616354240024712,32
599616354247711232,-18
599616354255397760,-23
599616354263084160,-4
599616354270770688,-32
599616354278457216,-51
599616354286143744,-51
599616354293830144,-61
599616354301516672,-73
599616354309203200,-77
599616354316889728,-70
599616354324576128,-68
599616354332262656,-75
599616354339949184,-68
599616354347635712,-51
599616354355322112,-30
599616354363008640,-7
599616354370695168,2
599616354378381696,14
599616354386068096,42
599616354393754624,63
599616354401441152,70
599616354409127680,75
599616354416814080,73
599616354424500608,70
599616354432187136,61
599616354439873664,30
599616354447560064,-7
599616354455246592,-25
599616354462933120,-42
599616354470619520,-63
599616354478306048,-84
599616354485992576,-106
599616354493679104,-106
599616354501365504,-70
599616354509052032,-44
599616354516738560,-44
599616354524425088,-49
599616354532111488,-47
599616354539798016,-37
599616354547484544,-30
599616354555171072,-37
599616354562857472,-32
599616354570544000,-25
599616354578230528,-30
599616354585917056,-32
599616354593603456,-25
599616354601289984,-25
599616354608976512,-32
599616354616663040,-35
599616354624349440,-37
599616354632035968,-40
599616354639722496,-54
599616354647409024,-73
599616354655095424,-82
599616354662781952,-91
599616354670468480,-115
599616354678154880,-136
599616354685841408,-143
599616354693527936,-162
599616354701214464,-193
599616354708900864,-214
599616354716587392,-209
599616354724273920,-190
599616354731960448,-186
599616354739646848,-214
599616354747333376,-256
599616354755019904,-266
599616354762706432,-240
599616354770392832,-240
599616354778079360,-259
599616354785765888,-252
599616354793452416,-242
599616354801138834,-256
599616354808825344,-266
599616354816511872,-254
599616354824198272,-245
599616354831884800,-226
599616354839571328,-289
599616354847257856,-558
599616354854944256,-808
599616354862630784,-765
599616354870317312,-600
599616354878003840,-492
599616354885690240,-318
599616354893376768,-122
599616354901063296,-98
599616354908749824,-146
599616354916436224,-131
599616354924122752,-129
599616354931809280,-153
599616354939495808,-150
599616354947182208,-143
599616354954868736,-150
599616354962555264,-150
599616354970241792,-148
599616354977928192,-153
599616354985614720,-148
599616354993301248,-131
599616355000987776,-131
599616355008674176,-134
599616355016360704,-117
599616355024047232,-101
599616355031733632,-84
599616355039420160,-73
599616355047106688,-70
599616355054793216,-70
599616355062479616,-63
599616355070166144,-47
599616355077852672,-49
599616355085539200,-82
599616355093225600,-103
599616355100912128,-108
599616355108598656,-139
599616355116285184,-176
599616355123971584,-195
599616355131658112,-221
599616355139344640,-242
599616355147031168,-233
599616355154717568,-228
599616355162404096,-235
599616355170090624,-230
599616355177777152,-230
599616355185463552,-226
599616355193150080,-202
599616355200836608,-193
599616355208523008,-200
599616355216209536,-188
599616355223896064,-176
599616355231582592,-176
599616355239268992,-171
599616355246955520,-169
599616355254642048,-181
599616355262328576,-197
599616355270014976,-193
599616355277701504,-179
599616355285388032,-169
599616355293074560,-157
599616355300760960,-157
599616355308447488,-167
599616355316134016,-160
599616355323820544,-153
599616355331506944,-153
599616355339193472,-148
599616355346880000,-141
599616355354566528,-143
599616355362252952,-148
599616355369939200,-153
599616355377625472,-146
599616355385311744,-127
599616355392998016,-108
599616355400684288,-94
599616355408370688,-103
599616355416056960,-115
599616355423743232,-103
599616355431429504,-89
599616355439115776,-94
599616355446802048,-89
599616355454488320,-77
599616355462174592,-80
599616355469860864,-82
599616355477547264,-63
599616355485233536,-49
599616355492919808,-61
599616355500606080,-63
599616355508292352,-110
599616355515978624,-362
599616355523664896,-645
599616355531351168,-603
599616355539037440,-372
599616355546723712,-207
599616355554410112,-16
599616355562096384,134
599616355569782656,120
599616355577468928,94
599616355585155200,115
599616355592841472,106
599616355600527744,89
599616355608214016,103
599616355615900288,113
599616355623586688,101
599616355631272960,91
599616355638959232,89
599616355646645504,96
599616355654331776,113
599616355662018048,122
599616355669704320,120
599616355677390592,117
599616355685076864,117
599616355692763264,136
599616355700449536,162
599616355708135808,174
599616355715822080,171
599616355723508352,167
599616355731194624,171
599616355738880896,176
599616355746567168,171
599616355754253440,157
599616355761939712,129
599616355769626112,89
599616355777312384,63
599616355784998656,44
599616355792684928,14
599616355800371200,-11
599616355808057472,-21
599616355815743744,-21
599616355823430016,-28
599616355831116288,-25
599616355838802688,2
599616355846488960,23
599616355854175232,28
599616355861861504,23
599616355869547776,25
599616355877234048,40
599616355884920320,51
599616355892606592,61
599616355900292864,70
599616355907979264,70
599616355915665536,65
599616355923351813,75
599616355931038464,87
599616355938725120,91
599616355946411904,101
599616355954098560,101
599616355961785216,94
599616355969472000,96
599616355977158656,106
599616355984845440,103
599616355992532096,91
599616356000218752,80
599616356007905536,82
599616356015592192,91
599616356023278848,91
599616356030965632,84
599616356038652288,75
599616356046339072,82
599616356054025728,98
599616356061712384,122
599616356069399168,148
599616356077085824,139
599616356084772480,110
599616356092459264,108
599616356100145920,120
599616356107832704,122
599616356115519360,122
599616356123206016,122
599616356130892800,122
599616356138579456,122
599616356146266112,122
599616356153952896,127
599616356161639552,131
599616356169326336,157
599616356177012992,89
599616356184699648,-223
599616356192386432,-511
599616356200073088,-419
599616356207759744,-179
599616356215446528,-42
599616356223133184,139
599616356230819968,310
599616356238506624,292
599616356246193280,242
599616356253880064,266
599616356261566720,270
599616356269253376,249
599616356276940160,242
599616356284626816,233
599616356292313600,228
599616356300000256,235
599616356307686912,230
599616356315373696,219
599616356323060352,226
599616356330747008,233
599616356338433792,233
599616356346120448,235
599616356353807232,237
599616356361493888,245
599616356369180544,254
599616356376867328,256
599616356384553984,259
599616356392240640,268
599616356399927424,266
599616356407614080,261
599616356415300864,259
599616356422987520,242
599616356430674176,209
599616356438360960,179
599616356446047616,143
599616356453734272,106
599616356461421056,73
599616356469107712,47
599616356476794496,23
599616356484481192,11
599616356492167552,18
599616356499853952,28
599616356507540224,28
599616356515226624,30
599616356522913024,37
599616356530599296,35
599616356538285696,23
599616356545972096,28
599616356553658368,44
599616356561344768,51
599616356569031168,44
599616356576717440,42
599616356584403840,56
599616356592090112,70
599616356599776512,68
599616356607462912,63
599616356615149184,63
599616356622835584,65
599616356630521984,70
599616356638208256,73
599616356645894656,65
599616356653581056,61
599616356661267328,61
599616356668953728,63
599616356676640128,68
599616356684326400,70
599616356692012800,70
599616356699699200,61
599616356707385472,61
599616356715071872,80
599616356722758272,98
599616356730444544,108
599616356738130944,98
599616356745817344,73
599616356753503616,70
599616356761190016,91
599616356768876288,82
599616356776562688,54
599616356784249088,61
599616356791935360,89
599616356799621760,89
599616356807308160,77
599616356814994432,82
599616356822680832,94
599616356830367232,117
599616356838053504,54
599616356845739904,-221
599616356853426304,-480
599616356861112576,-431
599616356868798976,-252
599616356876485376,-146
599616356884171648,16
599616356891858048,204
599616356899544448,226
599616356907230720,186
599616356914917120,209
599616356922603520,214
599616356930289792,176
599616356937976192,169
599616356945662464,181
599616356953348864,169
599616356961035264,150
599616356968721536,155
599616356976407936,162
599616356984094336,143
599616356991780608,143
599616356999467008,164
599616357007153408,169
599616357014839680,164
599616357022526080,160
599616357030212480,167
599616357037898752,176
599616357045585144,186
599616357053271808,195
599616357060958464,190
599616357068645120,174
599616357076331648,160
599616357084018304,148
599616357091704960,131
599616357099391616,91
599616357107078272,37
599616357114764928,-9
599616357122451456,-37
599616357130138112,-49
599616357137824768,-61
599616357145511424,-77
599616357153198080,-84
599616357160884736,-84
599616357168571264,-80
599616357176257920,-70
599616357183944576,-61
599616357191631232,-61
599616357199317888,-70
599616357207004544,-56
599616357214691072,-18
599616357222377728,-4
599616357230064384,-11
599616357237751040,-9
599616357245437696,-2
599616357253124352,2
599616357260810880,7
599616357268497536,7
599616357276184192,2
599616357283870848,32
599616357291557504,129
599616357299244160,268
599616357306930688,426
599616357314617344,657
599616357322304000,1034
599616357329990656,1503
599616357337677312,1997
599616357345363968,2539
599616357353050496,3109
599616357360737152,3844
599616357368423808,5006
599616357376110464,6596
599616357383797120,8455
599616357391483648,10514
599616357399170304,12882
599616357406856960,15747
599616357414543616,18875
599616357422230272,19297
599616357429916928,19297
599616357437603456,19297
599616357445290112,19297
599616357452976768,19297
599616357460663424,19297
599616357468350080,19297
599616357476036736,19297
599616357483723264,19297
599616357491409920,19297
599616357499096576,19297
599616357506783232,19297
599616357514469888,19297
599616357522156544,19297
599616357529843072,19297
599616357537529728,19297
599616357545216384,19297
599616357552903040,19297
599616357560589696,19297
599616357568276352,19297
599616357575962880,19297
599616357583649536,19297
599616357591336192,19297
599616357599022848,19297
599616357606709436,19297
599616357614396544,19297
599616357622083712,19297
599616357629770752,19297
599616357637457920,19297
599616357645145088,19297
599616357652832128,19297
599616357660519296,19297
599616357668206336,19297
599616357675893504,19297
599616357683580672,19297
599616357691267712,19297
599616357698954880,19297
599616357706642048,19297
599616357714329088,19297
599616357722016256,19297
599616357729703424,19297
599616357737390464,19297
599616357745077632,19297
599616357752764800,19297
599616357760451840,19297
599616357768139008,19297
599616357775826048,19297
599616357783513216,19297
599616357791200384,19297
599616357798887424,19297
599616357806574592,19297
599616357814261760,19297
599616357821948800,19297
599616357829635968,19297
599616357837323136,19297
599616357845010176,19297
599616357852697344,19297
599616357860384384,19297
599616357868071552,19297
599616357875758720,19297
599616357883445760,19297
599616357891132928,19297
599616357898820096,19297
599616357906507136,19297
599616357914194304,19297
599616357921881472,19297
599616357929568512,19297
599616357937255680,19297
599616357944942848,19297
599616357952629888,19297
599616357960317056,19297
599616357968004096,19297
599616357975691264,19297
599616357983378432,19297
599616357991065472,19297
599616357998752640,19297
599616358006439808,19297
599616358014126848,19297
599616358021814016,19297
599616358029501184,19297
599616358037188224,19297
599616358044875392,19297
599616358052562432,19297
599616358060249600,19297
599616358067936768,19297
599616358075623808,19297
599616358083310976,19297
599616358090998144,19297
599616358098685184,19297
599616358106372352,19297
599616358114059520,19297
599616358121746560,19297
599616358129433728,19297
599616358137120768,19297
599616358144807936,19297
599616358152495104,19297
599616358160182144,19297
599616358167869333,19297
599616358175556480,19297
599616358183243648,19297
599616358190930688,19297
599616358198617856,19297
599616358206305024,19297
599616358213992064,19297
599616358221679232,19297
599616358229366272,19297
599616358237053440,19297
599616358244740608,19297
599616358252427648,19297
599616358260114816,19297
599616358267801984,19297
599616358275489024,19297
599616358283176192,19297
599616358290863360,19297
599616358298550400,19297
599616358306237568,19297
599616358313924736,19297
599616358321611776,19297
599616358329298944,19297
599616358336985984,19297
599616358344673152,19297
599616358352360320,19297
599616358360047360,19297
599616358367734528,19297
599616358375421696,19297
599616358383108736,19297
599616358390795904,19297
599616358398483072,19297
599616358406170112,19297
599616358413857280,19297
599616358421544320,19297
599616358429231488,19297
599616358436918656,19297
599616358444605696,19297
599616358452292864,19297
599616358459980032,19297
599616358467667072,14354
599616358475354240,-6742
599616358483041408,-19300
599616358490728448,-19300
599616358498415616,-19300
599616358506102784,-19300
599616358513789824,-19300
599616358521476992,-19300
599616358529164032,-19300
599616358536851200,-19300
599616358544538368,-19300
599616358552225408,-19300
599616358559912576,-19300
599616358567599744,-19300
599616358575286784,-19300
599616358582973952,-19300
599616358590661120,-19300
599616358598348160,-19300
599616358606035328,-19300
599616358613722368,-19300
599616358621409536,-19300
599616358629096704,-19300
599616358636783744,-19300
599616358644470912,-19300
599616358652158080,-19300
599616358659845120,-19300
599616358667532288,-19300
599616358675219456,-19300
599616358682906496,-19300
599616358690593664,-19300
599616358698280704,-19300
599616358705967872,-19300
599616358713655040,-19300
599616358721342080,-19300
599616358729029230,-19300
599616358736715904,-19300
599616358744402560,-19300
599616358752089344,-19300
599616358759776000,-19300
599616358767462656,-19300
599616358775149440,-19300
599616358782836096,-19300
599616358790522880,-19300
599616358798209536,-19300
599616358805896192,-19300
599616358813582976,-19300
599616358821269632,-19300
599616358828956288,-19300
599616358836643072,-19300
599616358844329728,-19300
599616358852016512,-19300
599616358859703168,-19300
599616358867389824,-19300
599616358875076608,-19300
599616358882763264,-19300
599616358890449920,-19300
599616358898136704,-19300
599616358905823360,-19300
599616358913510144,-19300
599616358921196800,-19300
599616358928883456,-19300
599616358936570240,-19300
599616358944256896,-19300
599616358951943552,-19066
599616358959630336,-15912
599616358967316992,-12776
599616358975003776,-10382
599616358982690432,-8926
599616358990377088,-7576
599616358998063872,-5315
599616359005750528,-1764
599616359013437184,2584
599616359021123968,6540
599616359028810624,9774
599616359036497408,13148
599616359044184064,16383
599616359051870720,18451
599616359059557504,19297
599616359067244160,19297
599616359074930816,19297
599616359082617600,19297
599616359090304256,19297
599616359097991040,19297
599616359105677696,19297
599616359113364352,19297
599616359121051136,17238
599616359128737792,12696
599616359136424448,6417
599616359144111232,-28
599616359151797888,-4452
599616359159484672,-6608
599616359167171328,-6917
599616359174857984,-4726
599616359182544768,-365
599616359190231424,4132
599616359197918080,6801
599616359205604864,6921
599616359213291520,4198
599616359220978304,-1276
599616359228664960,-7833
599616359236351616,-12903
599616359244038400,-15179
599616359251725056,-15405
599616359259411712,-14903
599616359267098496,-14456
599616359274785152,-14274
599616359282471936,-13886
599616359290158609,-12679
599616359297845760,-11334
599616359305532928,-11548
599616359313219968,-13994
599616359320907136,-17942
599616359328594304,-19300
599616359336281344,-19300
599616359343968512,-19300
599616359351655552,-19300
599616359359342720,-19300
599616359367029888,-19300
599616359374716928,-19300
599616359382404096,-19300
599616359390091264,-19300
599616359397778304,-19300
599616359405465472,-19300
599616359413152640,-19300
599616359420839680,-19300
599616359428526848,-19300
599616359436214016,-19300
599616359443901056,-19300
599616359451588224,-19300
599616359459275264,-19300
599616359466962432,-19300
599616359474649600,-19300
599616359482336640,-19300
599616359490023808,-19300
599616359497710976,-18213
599616359505398016,-15935
599616359513085184,-15200
599616359520772352,-15961
599616359528459392,-17368
599616359536146560,-18974
599616359543833600,-19300
599616359551520768,-19300
599616359559207936,-19300
599616359566894976,-19300
599616359574582144,-19300
599616359582269312,-19300
599616359589956352,-19300
599616359597643520,-19300
599616359605330688,-19300
599616359613017728,-19300
599616359620704896,-19300
599616359628392064,-19300
599616359636079104,-19300
599616359643766272,-19300
599616359651453312,-19300
599616359659140480,-19300
599616359666827648,-19300
599616359674514688,-19300
599616359682201856,-19300
599616359689889024,-19300
599616359697576064,-19300
599616359705263232,-19300
599616359712950400,-19300
599616359720637440,-19300
599616359728324608,-19300
599616359736011648,-19300
599616359743698816,-19300
599616359751385984,-19300
599616359759073024,-19300
599616359766760192,-19300
599616359774447360,-19300
599616359782134400,-19168
599616359789821568,-18984
599616359797508736,-18732
599616359805195776,-18197
599616359812882944,-17818
599616359820570112,-17672
599616359828257152,-17361
599616359835944320,-17002
599616359843631360,-16772
599616359851318510,-16529
599616359859005184,-16284
599616359866691840,-16086
599616359874378624,-15881
599616359882065280,-15660
599616359889751936,-15400
599616359897438720,-15177
599616359905125376,-15115
599616359912812160,-14974
599616359920498816,-14621
599616359928185472,-14376
599616359935872256,-14232
599616359943558912,-14006
599616359951245568,-13831
599616359958932352,-13704
599616359966619008,-13494
599616359974305792,-13247
599616359981992448,-13028
599616359989679104,-12872
599616359997365888,-12752
599616360005052544,-12590
599616360012739200,-12415
599616360020425984,-12274
599616360028112640,-12109
599616360035799424,-11954
599616360043486080,-11826
599616360051172736,-11643
599616360058859520,-11457
599616360066546176,-11329
599616360074232832,-11195
599616360081919616,-11141
599616360089606272,-11105
599616360097293056,-10776
599616360104979712,-10137
599616360112666368,-9605
599616360120353152,-9657
599616360128039808,-10175
599616360135726464,-10396
599616360143413248,-10156
599616360151099904,-9909
599616360158786688,-9718
599616360166473344,-9499
599616360174160000,-9383
599616360181846784,-9317
599616360189533440,-9157
599616360197220096,-9004
599616360204906880,-8912
599616360212593536,-8775
599616360220280320,-8639
599616360227966976,-8545
599616360235653632,-8436
599616360243340416,-8335
599616360251027072,-8231
599616360258713728,-8104
599616360266400512,-8003
599616360274087168,-7899
599616360281773952,-7781
599616360289460608,-7751
599616360297147264,-7706
599616360304834048,-7531
599616360312520704,-7400
599616360320207360,-7343
599616360327894144,-7237
599616360335580800,-7138
599616360343267584,-7070
599616360350954240,-6973
599616360358640896,-6895
599616360366327680,-6836
599616360374014336,-6747
599616360381700992,-6686
599616360389387776,-6646
599616360397074432,-6563
599616360404761216,-6488
599616360412447889,-6410
599616360420134528,-6325
599616360427821184,-6280
599616360435507968,-6224
599616360443194624,-6118
599616360450881280,-6033
599616360458568064,-5998
599616360466254720,-5937
599616360473941504,-5830
599616360481628160,-5736
599616360489314816,-5677
599616360497001600,-5616
599616360504688256,-5529
599616360512374912,-5454
599616360520061696,-5409
599616360527748352,-5326
599616360535435136,-5216
599616360543121792,-5159
599616360550808448,-5131
599616360558495232,-5046
599616360566181888,-4923
599616360573868544,-4869
599616360581555328,-4893
599616360589241984,-4843
599616360596928768,-4700
599616360604615424,-4648
599616360612302080,-4636
599616360619988864,-4537
599616360627675520,-4469
599616360635362176,-4445
599616360643048960,-4356
599616360650735616,-4280
599616360658422400,-4271
599616360666109056,-4250
599616360673795712,-4205
599616360681482496,-4188
599616360689169152,-4188
599616360696855808,-4127
599616360704542592,-4047
599616360712229248,-4021
599616360719916032,-3993
599616360727602688,-3934
599616360735289344,-3875
599616360742976128,-3873
599616360750662784,-3986
599616360758349440,-4033
599616360766036224,-3731
599616360773722880,-3105
599616360781409664,-2619
599616360789096320,-2890
599616360796782976,-3639
599616360804469760,-3934
599616360812156416,-3750
599616360819843072,-3599
599616360827529856,-3512
599616360835216512,-3458
599616360842903296,-3467
599616360850589952,-3432
599616360858276608,-3369
599616360865963392,-3350
599616360873650048,-3324
599616360881336704,-3272
599616360889023488,-3263
599616360896710144,-3286
599616360904396928,-3253
599616360912083584,-3180
599616360919770240,-3171
599616360927457024,-3208
599616360935143680,-3222
599616360942830336,-3222
599616360950517120,-3199
599616360958203776,-3171
599616360965890560,-3164
599616360973577268,-3145
599616360981263872,-3135
599616360988950528,-3149
599616360996637312,-3145
599616361004323968,-3138
599616361012010624,-3131
599616361019697408,-3116
599616361027384064,-3166
599616361035070848,-3234
599616361042757504,-3204
599616361050444160,-3145
599616361058130944,-3145
599616361065817600,-3142
599616361073504256,-3131
599616361081191040,-3114
599616361088877696,-3074
599616361096564480,-3050
599616361104251136,-3053
599616361111937792,-3036
599616361119624576,-3008
599616361127311232,-2994
599616361134997888,-2982
599616361142684672,-2968
599616361150371328,-2949
599616361158058112,-2935
599616361165744768,-2933
599616361173431424,-2921
599616361181118208,-2886
599616361188804864,-2853
599616361196491520,-2836
599616361204178304,-2841
599616361211864960,-2848
599616361219551744,-2829
599616361227238400,-2791
599616361234925056,-2777
599616361242611840,-2775
599616361250298496,-2765
599616361257985152,-2763
599616361265671936,-2749
599616361273358592,-2704
599616361281045376,-2683
599616361288732032,-2699
599616361296418688,-2721
599616361304105472,-2732
599616361311792128,-2702
599616361319478784,-2636
599616361327165568,-2593
599616361334852224,-2553
599616361342539008,-2530
599616361350225664,-2546
599616361357912320,-2532
599616361365599104,-2506
599616361373285760,-2535
599616361380972416,-2539
599616361388659200,-2511
599616361396345856,-2511
599616361404032640,-2490
599616361411719296,-2440
599616361419405952,-2431
599616361427092736,-2447
599616361434779392,-2461
599616361442466048,-2537
599616361450152832,-2629
599616361457839488,-2450
599616361465526272,-1934
599616361473212928,-1481
599616361480899584,-1632
599616361488586368,-2294
599616361496273024,-2702
599616361503959680,-2622
599616361511646464,-2469
599616361519333120,-2344
599616361527019904,-2228
599616361534706647,-2216
599616361542393344,-2226
599616361550080000,-2191
599616361557766784,-2169
599616361565453440,-2153
599616361573140096,-2122
599616361580826880,-2120
599616361588513536,-2129
599616361596200320,-2103
599616361603886976,-2059
599616361611573632,-2037
599616361619260416,-2063
599616361626947072,-2068
599616361634633728,-2019
599616361642320512,-1979
599616361650007168,-1971
599616361657693952,-1948
599616361665380608,-1931
599616361673067264,-1943
599616361680754048,-1938
599616361688440704,-1903
599616361696127360,-1898
599616361703814144,-1941
599616361711500800,-1950
599616361719187584,-1922
599616361726874240,-1931
599616361734560896,-1953
599616361742247680,-1953
599616361749934336,-1974
599616361757620992,-1997
599616361765307776,-1986
599616361772994432,-1976
599616361780681216,-1986
599616361788367872,-1983
599616361796054528,-1971
599616361803741312,-1976
599616361811427968,-1988
599616361819114624,-1969
599616361826801408,-1941
599616361834488064,-1934
599616361842174848,-1920
599616361849861504,-1877
599616361857548160,-1849
599616361865234944,-1865
599616361872921600,-1851
599616361880608256,-1816
599616361888295040,-1809
599616361895981696,-1792
599616361903668480,-1792
599616361911355136,-1814
599616361919041792,-1792
599616361926728576,-1752
599616361934415232,-1743
599616361942101888,-1764
599616361949788672,-1771
599616361957475328,-1738
599616361965162112,-1698
599616361972848768,-1703
599616361980535424,-1736
599616361988222208,-1736
599616361995908864,-1696
599616362003595520,-1677
599616362011282304,-1691
599616362018968960,-1686
599616362026655744,-1653
599616362034342400,-1604
599616362042029056,-1583
599616362049715840,-1585
599616362057402496,-1573
599616362065089152,-1590
599616362072775936,-1646
599616362080462592,-1639
599616362088149376,-1571
599616362095836026,-1561
599616362103523072,-1597
599616362111210112,-1592
599616362118897152,-1561
599616362126584192,-1545
599616362134271232,-1587
599616362141958272,-1705
599616362149645440,-1759
599616362157332480,-1547
599616362165019520,-1043
599616362172706560,-636
599616362180393600,-914
599616362188080640,-1635
599616362195767680,-1920
599616362203454720,-1759
599616362211141760,-1613
599616362218828800,-1500
599616362226515968,-1465
599616362234203008,-1512
599616362241890048,-1493
599616362249577088,-1446
599616362257264128,-1448
599616362264951168,-1444
599616362272638208,-1404
599616362280325248,-1392
599616362288012288,-1413
599616362295699328,-1408
599616362303386368,-1387
599616362311073536,-1394
599616362318760576,-1394
599616362326447616,-1357
599616362334134656,-1335
599616362341821696,-1357
599616362349508736,-1354
599616362357195776,-1302
599616362364882816,-1276
599616362372569856,-1312
599616362380256896,-1312
599616362387944064,-1274
599616362395631104,-1288
599616362403318144,-1305
599616362411005184,-1286
599616362418692224,-1295
599616362426379264,-1309
599616362434066304,-1302
599616362441753344,-1319
599616362449440384,-1335
599616362457127424,-1333
599616362464814464,-1342
599616362472501632,-1359
599616362480188672,-1345
599616362487875712,-1324
599616362495562752,-1331
599616362503249792,-1349
599616362510936832,-1357
599616362518623872,-1335
599616362526310912,-1307
599616362533997952,-1307
599616362541684992,-1305
599616362549372160,-1279
599616362557059200,-1267
599616362564746240,-1272
599616362572433280,-1258
599616362580120320,-1251
599616362587807360,-1265
599616362595494400,-1255
599616362603181440,-1225
599616362610868480,-1222
599616362618555520,-1215
599616362626242688,-1180
599616362633929728,-1182
599616362641616768,-1213
599616362649303808,-1220
599616362656990840,-1210
599616362664677632,-1185
599616362672364416,-1166
599616362680051200,-1175
599616362687737984,-1177
599616362695424768,-1173
599616362703111552,-1175
599616362710798336,-1161
599616362718484992,-1133
599616362726171776,-1133
599616362733858560,-1144
599616362741545344,-1156
599616362749232128,-1152
599616362756918912,-1102
599616362764605696,-1055
599616362772292480,-1041
599616362779979264,-1031
599616362787666048,-1071
599616362795352832,-1142
599616362803039616,-1161
599616362810726272,-1149
599616362818413056,-1109
599616362826099840,-1097
599616362833786624,-1126
599616362841473408,-1112
599616362849160192,-1100
599616362856846976,-1126
599616362864533760,-1161
599616362872220544,-1267
599616362879907328,-1305
599616362887594112,-965
599616362895280896,-372
599616362902967552,-110
599616362910654336,-553
599616362918341120,-1232
599616362926027904,-1439
599616362933714688,-1267
599616362941401472,-1137
599616362949088256,-1104
599616362956775040,-1088
599616362964461824,-1074
599616362972148608,-1046
599616362979835392,-1031
599616362987522176,-1036
599616362995208832,-1024
599616363002895616,-1017
599616363010582400,-1020
599616363018269184,-994
599616363025955968,-970
599616363033642752,-977
599616363041329536,-965
599616363049016320,-937
599616363056703104,-937
599616363064389888,-954
599616363072076672,-949
599616363079763456,-925
599616363087450112,-909
599616363095136896,-911
599616363102823680,-916
599616363110510464,-885
599616363118197248,-857
599616363125884032,-866
599616363133570816,-881
599616363141257600,-897
599616363148944384,-911
599616363156631168,-904
599616363164317952,-902
599616363172004736,-932
599616363179691392,-958
599616363187378176,-949
599616363195064960,-944
599616363202751744,-970
599616363210438528,-989
599616363218125302,-968
599616363225811968,-932
599616363233498624,-932
599616363241185408,-958
599616363248872064,-958
599616363256558720,-935
599616363264245504,-930
599616363271932160,-947
599616363279618944,-940
599616363287305600,-923
599616363294992256,-921
599616363302679040,-928
599616363310365696,-923
599616363318052352,-918
599616363325739136,-930
599616363333425792,-932
599616363341112576,-904
599616363348799232,-895
599616363356485888,-890
599616363364172672,-859
599616363371859328,-862
599616363379545984,-895
599616363387232768,-907
599616363394919424,-888
599616363402606208,-869
599616363410292864,-878
599616363417979520,-902
599616363425666304,-888
599616363433352960,-852
599616363441039616,-866
599616363448726400,-888
599616363456413056,-869
599616363464099840,-866
599616363471786496,-869
599616363479473152,-850
599616363487159936,-836
599616363494846592,-826
599616363502533248,-808
599616363510220032,-775
599616363517906688,-777
599616363525593472,-841
599616363533280128,-866
599616363540966784,-848
599616363548653568,-862
599616363556340224,-874
599616363564026880,-852
599616363571713664,-841
599616363579400320,-852
599616363587087104,-848
599616363594773760,-859
599616363602460416,-970
599616363610147200,-1102
599616363617833856,-996
599616363625520512,-520
599616363633207296,32
599616363640893952,23
599616363648580736,-636
599616363656267392,-1168
599616363663954048,-1187
599616363671640832,-1041
599616363679327488,-932
599616363687014144,-857
599616363694700928,-859
599616363702387584,-883
599616363710074368,-862
599616363717761024,-831
599616363725447680,-845
599616363733134464,-845
599616363740821120,-793
599616363748507776,-777
599616363756194560,-808
599616363763881216,-793
599616363771568000,-772
599616363779254685,-801
599616363786941312,-815
599616363794627968,-798
599616363802314752,-772
599616363810001408,-772
599616363817688064,-801
599616363825374848,-777
599616363833061504,-725
599616363840748288,-725
599616363848434944,-749
599616363856121600,-751
599616363863808384,-763
599616363871495040,-791
599616363879181696,-789
599616363886868480,-775
599616363894555136,-791
599616363902241920,-808
599616363909928576,-829
599616363917615232,-852
599616363925302016,-850
599616363932988672,-857
599616363940675328,-888
599616363948362112,-885
599616363956048768,-874
599616363963735552,-871
599616363971422208,-859
599616363979108864,-859
599616363986795648,-876
599616363994482304,-866
599616364002168960,-848
599616364009855744,-857
599616364017542400,-857
599616364025229184,-822
599616364032915840,-819
599616364040602496,-862
599616364048289280,-843
599616364055975936,-791
599616364063662592,-810
599616364071349376,-829
599616364079036032,-803
599616364086722816,-803
599616364094409472,-829
599616364102096128,-841
599616364109782912,-836
599616364117469568,-826
599616364125156224,-824
599616364132843008,-822
599616364140529664,-815
599616364148216448,-822
599616364155903104,-829
599616364163589760,-819
599616364171276544,-817
599616364178963200,-824
599616364186649856,-819
599616364194336640,-808
599616364202023296,-803
599616364209710080,-770
599616364217396736,-737
599616364225083392,-751
599616364232770176,-753
599616364240456832,-742
599616364248143488,-763
599616364255830272,-805
599616364263516928,-812
599616364271203712,-803
599616364278890368,-805
599616364286577024,-805
599616364294263808,-793
599616364301950464,-784
599616364309637120,-789
599616364317323904,-834
599616364325010560,-937
599616364332697344,-1005
599616364340384064,-826
599616364348070656,-343
599616364355757312,51
599616364363444096,-157
599616364371130752,-784
599616364378817408,-1126
599616364386504192,-1079
599616364394190848,-965
599616364401877632,-834
599616364409564288,-765
599616364417250944,-796
599616364424937728,-775
599616364432624384,-725
599616364440311040,-730
599616364447997824,-753
599616364455684480,-746
599616364463371264,-725
599616364471057920,-723
599616364478744576,-735
599616364486431360,-720
599616364494118016,-690
599616364501804672,-702
599616364509491456,-711
599616364517178112,-683
599616364524864896,-673
599616364532551552,-678
599616364540238208,-673
599616364547924992,-654
599616364555611648,-626
599616364563298304,-638
599616364570985088,-669
599616364578671744,-673
599616364586358528,-676
599616364594045184,-683
599616364601731840,-697
599616364609418624,-723
599616364617105280,-716
599616364624791936,-695
599616364632478720,-727
599616364640165376,-765
599616364647852160,-760
599616364655538816,-765
599616364663225472,-786
599616364670912256,-791
599616364678598912,-786
599616364686285568,-782
599616364693972352,-779
599616364701659008,-786
599616364709345792,-772
599616364717032448,-744
599616364724719104,-749
599616364732405888,-775
599616364740092544,-751
599616364747779200,-711
599616364755465984,-730
599616364763152640,-742
599616364770839424,-709
599616364778526080,-690
599616364786212736,-702
599616364793899520,-704
599616364801586176,-704
599616364809272832,-718
599616364816959616,-730
599616364824646272,-730
599616364832333056,-713
599616364840019712,-699
599616364847706368,-725
599616364855393152,-739
599616364863079808,-718
599616364870766464,-702
599616364878453248,-699
599616364886139904,-685
599616364893826688,-683
599616364901513443,-704
599616364909200512,-709
599616364916887552,-699
599616364924574464,-699
599616364932261504,-690
599616364939948416,-678
599616364947635456,-690
599616364955322368,-678
599616364963009408,-626
599616364970696320,-614
599616364978383360,-636
599616364986070400,-659
599616364993757312,-695
599616365001444352,-709
599616365009131264,-692
599616365016818304,-685
599616365024505216,-687
599616365032192256,-685
599616365039879168,-695
599616365047566208,-725
599616365055253120,-751
599616365062940160,-796
599616365070627200,-869
599616365078314112,-838
599616365086001152,-475
599616365093688064,108
599616365101375104,275
599616365109062016,-282
599616365116749056,-899
599616365124435968,-1005
599616365132123008,-862
599616365139810048,-749
599616365147496960,-704
599616365155184000,-706
599616365162870912,-680
599616365170557952,-647
599616365178244864,-673
599616365185931904,-692
599616365193618816,-669
599616365201305856,-643
599616365208992768,-636
599616365216679808,-629
599616365224366848,-621
599616365232053760,-621
599616365239740800,-631
599616365247427712,-619
599616365255114752,-591
599616365262801664,-593
599616365270488704,-619
599616365278175616,-598
599616365285862656,-560
599616365293549696,-563
599616365301236608,-596
599616365308923648,-612
599616365316610560,-579
599616365324297600,-553
599616365331984512,-593
599616365339671552,-619
599616365347358464,-603
599616365355045504,-617
599616365362732544,-647
599616365370419456,-654
599616365378106496,-666
599616365385793408,-690
599616365393480448,-680
599616365401167360,-645
599616365408854400,-659
599616365416541312,-716
599616365424228352,-716
599616365431915264,-645
599616365439602304,-624
599616365447289344,-676
599616365454976256,-687
599616365462663170,-662
599616365470349952,-666
599616365478036736,-666
599616365485723648,-645
599616365493410432,-638
599616365501097344,-633
599616365508784128,-624
599616365516471040,-629
599616365524157824,-631
599616365531844736,-633
599616365539531520,-640
599616365547218432,-638
599616365554905216,-629
599616365562592128,-624
599616365570278912,-621
599616365577965696,-626
599616365585652608,-633
599616365593339392,-636
599616365601026304,-640
599616365608713088,-638
599616365616400000,-636
599616365624086784,-643
599616365631773696,-647
599616365639460480,-650
599616365647147392,-640
599616365654834176,-605
599616365662521088,-593
599616365670207872,-624
599616365677894656,-640
599616365685581568,-631
599616365693268352,-610
599616365700955264,-579
599616365708642048,-581
599616365716328960,-603
599616365724015744,-614
599616365731702656,-654
599616365739389440,-706
599616365747076352,-709
599616365754763136,-699
599616365762450048,-718
599616365770136832,-723
599616365777823616,-704
599616365785510528,-702
599616365793197312,-704
599616365800884224,-744
599616365808571008,-869
599616365816257920,-911
599616365823944704,-581
599616365831631616,84
599616365839318400,518
599616365847005312,155
599616365854692096,-574
599616365862379008,-822
599616365870065792,-638
599616365877752576,-414
599616365885439488,-150
599616365893126272,115
599616365900813184,343
599616365908499968,629
599616365916186880,949
599616365923873664,1239
599616365931560576,1517
599616365939247360,1778
599616365946934272,2007
599616365954621056,2209
599616365962307968,2322
599616365969994752,2299
599616365977681536,2198
599616365985368448,2075
599616365993055232,1962
599616366000742144,1931
599616366008428928,2007
599616366016115840,2172
599616366023802719,2391
599616366031489408,2591
599616366039176064,2747
599616366046862848,2933
599616366054549504,3201
599616366062236160,3500
599616366069922944,3826
599616366077609600,4162
599616366085296384,4490
599616366092983040,4898
599616366100669696,5350
599616366108356480,5757
599616366116043136,6153
599616366123729792,6490
599616366131416576,6785
599616366139103232,7133
599616366146790016,7477
599616366154476672,7781
599616366162163328,8050
599616366169850112,8165
599616366177536768,8085
599616366185223424,7852
599616366192910208,7503
599616366200596864,7020
599616366208283648,6356
599616366215970304,5673
599616366223656960,5166
599616366231343744,4770
599616366239030400,4316
599616366246717056,3658
599616366254403840,2794
599616366262090496,1917
599616366269777280,1114
599616366277463936,245
599616366285150592,-695
599616366292837376,-1536
599616366300524032,-2207
599616366308210688,-2768
599616366315897472,-3248
599616366323584128,-3639
599616366331270912,-3943
599616366338957568,-4179
599616366346644224,-4297
599616366354331008,-4287
599616366362017664,-4245
599616366369704320,-4203
599616366377391104,-4122
599616366385077760,-4028
599616366392764544,-3899
599616366400451200,-3628
599616366408137856,-3295
599616366415824640,-3072
599616366423511296,-2843
599616366431197952,-2542
599616366438884736,-2287
599616366446571392,-2106
599616366454258176,-1971
599616366461944832,-1950
599616366469631488,-2066
599616366477318272,-2245
599616366485004928,-2410
599616366492691584,-2499
599616366500378368,-2516
599616366508065024,-2490
599616366515751808,-2360
599616366523438464,-1872
599616366531125120,-902
599616366538811904,141
599616366546498560,454
599616366554185216,-153
599616366561872000,-918
599616366569558656,-1437
599616366577245440,-2014
599616366584932098,-2575
599616366592618752,-2919
599616366600305408,-3237
599616366607992192,-3555
599616366615678848,-3691
599616366623365504,-3651
599616366631052288,-3566
599616366638738944,-3482
599616366646425728,-3385
599616366654112384,-3281
599616366661799040,-3145
599616366669485824,-2952
599616366677172480,-2772
599616366684859136,-2631
599616366692545920,-2490
599616366700232576,-2372
599616366707919360,-2271
599616366715606016,-2132
599616366723292672,-1948
599616366730979456,-1729
599616366738666112,-1455
599616366746352768,-1173
599616366754039552,-940
599616366761726208,-739
599616366769412992,-553
599616366777099648,-398
599616366784786304,-320
599616366792473088,-287
599616366800159744,-197
599616366807846400,-47
599616366815533184,98
599616366823219840,80
599616366830906624,-197
599616366838593280,-563
599616366846279936,-874
599616366853966720,-1135
599616366861653376,-1335
599616366869340032,-1507
599616366877026816,-1686
599616366884713472,-1840
599616366892400256,-1941
599616366900086912,-2044
599616366907773568,-2186
599616366915460352,-2327
599616366923147008,-2492
599616366930833664,-2718
599616366938520448,-2940
599616366946207104,-3131
599616366953893888,-3303
599616366961580544,-3425
599616366969267200,-3498
599616366976953984,-3555
599616366984640640,-3562
599616366992327296,-3536
599616367000014080,-3526
599616367007700736,-3496
599616367015387520,-3423
599616367023074176,-3361
599616367030760832,-3300
599616367038447616,-3213
599616367046134272,-3121
599616367053820928,-3048
599616367061507712,-3003
599616367069194368,-2989
599616367076881152,-2954
599616367084567808,-2850
599616367092254464,-2744
599616367099941248,-2695
599616367107627904,-2662
599616367115314560,-2626
599616367123001344,-2608
599616367130688000,-2572
599616367138374784,-2523
599616367146061481,-2473
599616367153748096,-2438
599616367161434752,-2412
599616367169121536,-2370
599616367176808192,-2318
599616367184494848,-2278
599616367192181632,-2280
599616367199868288,-2334
599616367207555072,-2113
599616367215241728,-892
599616367222928384,1420
599616367230615168,3366
599616367238301824,3712
599616367245988480,3347
599616367253675264,3354
599616367261361920,3312
599616367269048704,2841
599616367276735360,2257
599616367284422016,1576
599616367292108800,739
599616367299795456,37
599616367307482112,-449
599616367315168896,-855
599616367322855552,-1180
599616367330542336,-1394
599616367338228992,-1547
599616367345915648,-1656
599616367353602432,-1665
599616367361289088,-1592
599616367368975744,-1519
599616367376662528,-1453
599616367384349184,-1364
599616367392035968,-1260
599616367399722624,-1168
599616367407409280,-1097
599616367415096064,-1069
599616367422782720,-1064
599616367430469376,-1062
599616367438156160,-1081
599616367445842816,-1112
599616367453529600,-1060
599616367461216256,-869
599616367468902912,-541
599616367476589696,32
599616367484276352,1180
599616367491963008,3564
599616367499649792,7963
599616367507336448,14769
599616367515023232,19297
599616367522709888,19297
599616367530396544,19297
599616367538083328,19297
599616367545769984,19297
599616367553456640,19297
599616367561143424,19297
599616367568830080,19297
599616367576516864,19297
599616367584203520,19297
599616367591890176,19297
599616367599576960,19297
599616367607263616,19297
599616367614950272,19297
599616367622637056,19297
599616367630323712,19297
599616367638010496,19297
599616367645697152,19297
599616367653383808,19297
599616367661070592,19297
599616367668757248,19297
599616367676443904,19297
599616367684130688,19297
599616367691817344,11560
599616367699504128,5051
599616367707190860,-1569
599616367714877568,-7802
599616367722564224,-12839
599616367730251008,-17469
599616367737937664,-19300
599616367745624320,-19300
599616367753311104,-19300
599616367760997760,-19300
599616367768684544,-19300
599616367776371200,-19300
599616367784057856,-19300
599616367791744640,-19300
599616367799431296,-19300
599616367807117952,-19300
599616367814804736,-19300
599616367822491392,-19300
599616367830178176,-19300
599616367837864832,-19300
599616367845551488,-19300
599616367853238272,-18906
599616367860924928,-16133
599616367868611584,-14437
599616367876298368,-13610
599616367883985024,-12441
599616367891671808,-11277
599616367899358464,-10835
599616367907045120,-11346
599616367914731904,-12821
599616367922418560,-14425
599616367930105216,-15558
599616367937792000,-16611
599616367945478656,-17676
599616367953165440,-18435
599616367960852096,-18901
599616367968538752,-19120
599616367976225536,-19045
599616367983912192,-18831
599616367991598848,-18600
599616367999285632,-18268
599616368006972288,-17834
599616368014659072,-17386
599616368022345728,-16951
599616368030032384,-16538
599616368037719168,-16138
599616368045405824,-15721
599616368053092480,-15318
599616368060779264,-14906
599616368068465920,-14472
599616368076152704,-14105
599616368083839360,-13772
599616368091526016,-13405
599616368099212800,-13052
599616368106899456,-12684
599616368114586112,-12345
599616368122272896,-12100
599616368129959552,-11864
599616368137646336,-11607
599616368145332992,-11351
599616368153019648,-11070
599616368160706432,-10799
599616368168393088,-10545
599616368176079744,-10297
599616368183766528,-10067
599616368191453184,-9831
599616368199139968,-9609
599616368206826624,-9454
599616368214513280,-9350
599616368222200064,-9265
599616368229886720,-9169
599616368237573376,-9018
599616368245260160,-8837
599616368252946816,-8672
599616368260633600,-8500
599616368268320239,-8316
599616368276007296,-8130
599616368283694336,-7906
599616368291381248,-7666
599616368299068288,-7461
599616368306755200,-7270
599616368314442240,-7105
599616368322129152,-6980
599616368329816192,-6780
599616368337503104,-6497
599616368345190144,-6349
599616368352877184,-6309
599616368360564096,-6165
599616368368251136,-5967
599616368375938048,-5847
599616368383625088,-5753
599616368391312000,-5626
599616368398999040,-5508
599616368406685952,-5428
599616368414372992,-5322
599616368422059904,-5187
599616368429746944,-5079
599616368437433984,-4968
599616368445120896,-4841
599616368452807936,-4782
599616368460494848,-4759
599616368468181888,-4690
599616368475868800,-4650
599616368483555840,-4681
599616368491242752,-4716
599616368498929792,-4759
599616368506616832,-4789
599616368514303744,-4770
599616368521990784,-4801
599616368529677696,-4949
599616368537364736,-5001
599616368545051648,-4641
599616368552738688,-3896
599616368560425600,-3361
599616368568112640,-3694
599616368575799552,-4504
599616368583486592,-4822
599616368591173632,-4693
599616368598860544,-4584
599616368606547584,-4410
599616368614234496,-4207
599616368621921536,-4155
599616368629608448,-4120
599616368637295488,-4033
599616368644982400,-3929
599616368652669440,-3778
599616368660356480,-3635
599616368668043392,-3538
599616368675730432,-3423
599616368683417344,-3286
599616368691104384,-3182
599616368698791296,-3114
599616368706478336,-3069
599616368714165248,-3055
599616368721852288,-3069
599616368729539328,-3079
599616368737226240,-3041
599616368744913280,-2975
599616368752600192,-2933
599616368760287232,-2888
599616368767974144,-2815
599616368775661184,-2742
599616368783348096,-2664
599616368791035136,-2560
599616368798722048,-2454
599616368806409088,-2367
599616368814096128,-2289
599616368821783040,-2235
599616368829469966,-2226
599616368837156736,-2195
599616368844843520,-2118
599616368852530432,-2063
599616368860217216,-2042
599616368867904128,-2016
599616368875590912,-2007
599616368883277824,-2040
599616368890964608,-2106
599616368898651520,-2165
599616368906338304,-2205
599616368914025216,-2224
599616368921712000,-2183
599616368929398912,-2120
599616368937085696,-2082
599616368944772480,-2061
599616368952459392,-2066
599616368960146176,-2094
599616368967833088,-2099
599616368975519872,-2087
599616368983206784,-2085
599616368990893568,-2075
599616368998580480,-2044
599616369006267264,-2014
599616369013954176,-1997
599616369021640960,-1964
599616369029327872,-1941
599616369037014656,-1955
599616369044701440,-1931
599616369052388352,-1880
599616369060075136,-1887
599616369067762048,-1872
599616369075448832,-1792
599616369083135744,-1766
599616369090822528,-1785
599616369098509440,-1774
599616369106196224,-1766
599616369113883136,-1783
599616369121569920,-1788
599616369129256832,-1788
599616369136943616,-1788
599616369144630400,-1771
599616369152317312,-1743
599616369160004096,-1712
599616369167691008,-1686
599616369175377792,-1705
599616369183064704,-1807
599616369190751488,-1837
599616369198438400,-1467
599616369206125184,-687
599616369213812096,-75
599616369221498880,-256
599616369229185792,-996
599616369236872576,-1437
599616369244559360,-1472
599616369252246272,-1521
599616369259933056,-1510
599616369267619968,-1411
599616369275306752,-1460
599616369282993664,-1547
599616369290680448,-1526
599616369298367360,-1498
599616369306054144,-1507
599616369313741056,-1503
599616369321427840,-1491
599616369329114752,-1481
599616369336801536,-1467
599616369344488320,-1455
599616369352175232,-1425
599616369359862016,-1349
599616369367548928,-1314
599616369375235712,-1326
599616369382922624,-1300
599616369390609515,-1251
599616369398296192,-1236
599616369405982848,-1246
599616369413669632,-1225
599616369421356288,-1173
599616369429042944,-1154
599616369436729728,-1163
599616369444416384,-1168
599616369452103168,-1161
599616369459789824,-1142
599616369467476480,-1142
599616369475163264,-1177
599616369482849920,-1210
599616369490536576,-1225
599616369498223360,-1225
599616369505910016,-1206
599616369513596800,-1187
599616369521283456,-1173
599616369528970112,-1144
599616369536656896,-1107
599616369544343552,-1069
599616369552030208,-1031
599616369559716992,-1001
599616369567403648,-975
599616369575090432,-954
599616369582777088,-947
599616369590463744,-944
599616369598150528,-930
599616369605837184,-921
599616369613523840,-911
599616369621210624,-899
599616369628897280,-902
599616369636584064,-911
599616369644270720,-897
599616369651957376,-888
599616369659644160,-897
599616369667330816,-864
599616369675017472,-798
599616369682704256,-751
599616369690390912,-713
599616369698077696,-671
599616369705764352,-621
599616369713451008,-551
599616369721137792,-515
599616369728824448,-497
599616369736511104,-405
599616369744197888,-310
599616369751884544,-289
599616369759571328,-240
599616369767257984,-167
599616369774944640,-204
599616369782631424,-280
599616369790318080,-282
599616369798004736,-296
599616369805691520,-341
599616369813378176,-353
599616369821064960,-362
599616369828751616,-424
599616369836438272,-508
599616369844125056,-593
599616369851811712,-753
599616369859498368,-1022
599616369867185152,-1201
599616369874871808,-965
599616369882558592,-308
599616369890245248,207
599616369897931904,-49
599616369905618688,-852
599616369913305344,-1314
599616369920992000,-1281
599616369928678784,-1201
599616369936365440,-1093
599616369944052224,-925
599616369951738894,-876
599616369959425664,-838
599616369967112448,-690
599616369974799232,-556
599616369982486016,-473
599616369990172800,-365
599616369997859584,-273
599616370005546368,-230
599616370013233024,-176
599616370020919808,-120
599616370028606592,-91
599616370036293376,-61
599616370043980160,-4
599616370051666944,49
599616370059353728,89
599616370067040512,176
599616370074727296,278
599616370082414080,273
599616370090100864,219
599616370097787648,200
599616370105474304,139
599616370113161088,2
599616370120847872,-169
599616370128534656,-339
599616370136221440,-482
599616370143908224,-612
599616370151595008,-768
599616370159281792,-914
599616370166968576,-1013
599616370174655360,-1093
599616370182342144,-1144
599616370190028928,-1149
599616370197715584,-1170
599616370205402368,-1220
599616370213089152,-1241
599616370220775936,-1222
599616370228462720,-1182
599616370236149504,-1093
599616370243836288,-874
599616370251523072,-511
599616370259209856,11
599616370266896640,782
599616370274583424,1854
599616370282270208,3171
599616370289956864,4709
599616370297643648,6599
599616370305330432,9562
599616370313017216,15457
599616370320704000,19297
599616370328390784,19297
599616370336077568,19297
599616370343764352,19297
599616370351451136,19297
599616370359137920,19297
599616370366824704,19297
599616370374511488,19297
599616370382198272,19297
599616370389884928,19297
599616370397571712,19297
599616370405258496,19297
599616370412945280,19297
599616370420632064,19297
599616370428318848,19297
599616370436005632,19297
599616370443692416,19297
599616370451379200,19297
599616370459065984,19297
599616370466752768,19297
599616370474439552,19297
599616370482126208,19297
599616370489812992,19297
599616370497499776,19297
599616370505186560,19297
599616370512873364,19297
599616370520560384,19297
599616370528247424,19297
599616370535934464,19297
599616370543621504,19297
599616370551308544,19297
599616370558995584,19297
599616370566682752,19297
599616370574369792,19297
599616370582056832,1757
599616370589743872,-16102
599616370597430912,-19300
599616370605117952,-19300
599616370612804992,-19300
599616370620492032,-19300
599616370628179072,-19300
599616370635866112,-19300
599616370643553280,-19300
599616370651240320,-19300
599616370658927360,-19300
599616370666614400,-19300
599616370674301440,-19300
599616370681988480,-19300
599616370689675520,-19300
599616370697362560,-19300
599616370705049600,-19300
599616370712736640,-19300
599616370720423680,-19300
599616370728110848,-19300
599616370735797888,-19300
599616370743484928,-19300
599616370751171968,-19300
599616370758859008,-19300
599616370766546048,-19300
599616370774233088,-19300
599616370781920128,-19300
599616370789607168,-19300
599616370797294208,-19300
599616370804981376,-19300
599616370812668416,-19300
599616370820355456,-19300
599616370828042496,-19300
599616370835729536,-19300
599616370843416576,-19300
599616370851103616,-19300
599616370858790656,-19300
599616370866477696,-19300
599616370874164736,-19300
599616370881851776,-19300
599616370889538944,-19300
599616370897225984,-19300
599616370904913024,-19300
599616370912600064,-19300
599616370920287104,-19300
599616370927974144,-19300
599616370935661184,-19300
599616370943348224,-19300
599616370951035264,-19300
599616370958722304,-19300
599616370966409472,-19300
599616370974096512,-19300
599616370981783552,-19300
599616370989470592,-19300
599616370997157632,-19300
599616371004844672,-19300
599616371012531712,-19300
599616371020218752,-19010
599616371027905792,-18449
599616371035592832,-17855
599616371043279872,-17273
599616371050967040,-16696
599616371058654080,-16140
599616371066341120,-15662
599616371074028174,-15276
599616371081714432,-15045
599616371089400704,-14988
599616371097086976,-14998
599616371104773248,-15094
599616371112459520,-15276
599616371120145920,-15367
599616371127832192,-15398
599616371135518464,-15426
599616371143204736,-15365
599616371150891008,-15316
599616371158577280,-15327
599616371166263552,-15141
599616371173949824,-14840
599616371181636096,-14710
599616371189322496,-14573
599616371197008768,-14326
599616371204695040,-14079
599616371212381312,-13815
599616371220067584,-13539
599616371227753856,-13268
599616371235440128,-12960
599616371243126400,-12672
599616371250812672,-12408
599616371258498944,-12128
599616371266185344,-11897
599616371273871616,-11574
599616371281557888,-10858
599616371289244160,-9866
599616371296930432,-9110
599616371304616704,-8896
599616371312302976,-8721
599616371319989248,-7758
599616371327675520,-5934
599616371335361920,-3244
599616371343048192,963
599616371350734464,7110
599616371358420736,16703
599616371366107008,19297
599616371373793280,19297
599616371381479552,19297
599616371389165824,19297
599616371396852096,19297
599616371404538496,19297
599616371412224768,19297
599616371419911040,19297
599616371427597312,19297
599616371435283584,19297
599616371442969856,19297
599616371450656128,19297
599616371458342400,19297
599616371466028672,19297
599616371473714944,19297
599616371481401344,19297
599616371489087616,19297
599616371496773888,19297
599616371504460160,19297
599616371512146432,19297
599616371519832704,19297
599616371527518976,19297
599616371535205248,16812
599616371542891520,-8992
599616371550577920,-19300
599616371558264192,-19300
599616371565950464,-19300
599616371573636736,-19300
599616371581323008,-19300
599616371589009280,-19300
599616371596695552,-19300
599616371604381824,-19300
599616371612068096,-19300
599616371619754496,-19300
599616371627440768,-19300
599616371635127035,-19300
599616371642813696,-19300
599616371650500352,-19300
599616371658187136,-19300
599616371665873792,-19300
599616371673560448,-19300
599616371681247232,-19300
599616371688933888,-19300
599616371696620672,-19300
599616371704307328,-19300
599616371711993984,-19300
599616371719680768,-19300
599616371727367424,-19300
599616371735054080,-19300
599616371742740864,-19300
599616371750427520,-19300
599616371758114304,-19300
599616371765800960,-19300
599616371773487616,-19300
599616371781174400,-19300
599616371788861056,-19300
599616371796547712,-19300
599616371804234496,-19300
599616371811921152,-19300
599616371819607936,-19300
599616371827294592,-19300
599616371834981248,-19300
599616371842668032,-19300
599616371850354688,-19300
599616371858041344,-19300
599616371865728128,-19300
599616371873414784,-19300
599616371881101568,-19300
599616371888788224,-19300
599616371896474880,-19300
599616371904161664,-19300
599616371911848320,-19300
599616371919534976,-19300
599616371927221760,-19300
599616371934908416,-18793
599616371942595200,-18296
599616371950281856,-17966
599616371957968512,-17582
599616371965655296,-17000
599616371973341952,-16225
599616371981028608,-15598
599616371988715392,-15377
599616371996402048,-15254
599616372004088832,-15118
599616372011775488,-15379
599616372019462144,-16246
599616372027148928,-17257
599616372034835584,-17775
599616372042522240,-17898
599616372050209024,-18006
599616372057895680,-17987
599616372065582464,-17829
599616372073269120,-17813
599616372080955776,-17879
599616372088642560,-17818
599616372096329216,-17726
599616372104015872,-17641
599616372111702656,-17417
599616372119389312,-17146
599616372127076096,-16927
599616372134762752,-16677
599616372142449408,-16444
599616372150136192,-16194
599616372157822848,-15827
599616372165509504,-15509
599616372173196288,-15306
599616372180882944,-15106
599616372188569728,-14910
599616372196256414,-14651
599616372203943040,-14314
599616372211629696,-14100
599616372219316480,-13966
599616372227003136,-13765
599616372234689792,-13582
599616372242376576,-13388
599616372250063232,-13139
599616372257750016,-12960
599616372265436672,-12849
599616372273123328,-12712
599616372280810112,-12552
599616372288496768,-12302
599616372296183424,-11947
599616372303870208,-11596
599616372311556864,-11190
599616372319243648,-10686
599616372326930304,-10194
599616372334616960,-9609
599616372342303744,-8929
599616372349990400,-8450
599616372357677056,-8156
599616372365363840,-7781
599616372373050496,-7428
599616372380737280,-7381
599616372388423936,-7659
599616372396110592,-8076
599616372403797376,-8455
599616372411484032,-8773
599616372419170688,-8990
599616372426857472,-9009
599616372434544128,-9011
599616372442230912,-9136
599616372449917568,-9221
599616372457604224,-9244
599616372465291008,-9268
599616372472977664,-9225
599616372480664320,-9126
599616372488351104,-9058
599616372496037760,-9011
599616372503724544,-8985
599616372511411200,-9004
599616372519097856,-8990
599616372526784640,-8933
599616372534471296,-8912
599616372542157952,-8896
599616372549844736,-8858
599616372557531392,-8815
599616372565218176,-8731
599616372572904832,-8608
599616372580591488,-8512
599616372588278272,-8429
599616372595964928,-8333
599616372603651584,-8224
599616372611338368,-8092
599616372619025024,-7948
599616372626711808,-7798
599616372634398464,-7605
599616372642085120,-7428
599616372649771904,-7305
599616372657458560,-7147
599616372665145216,-6957
599616372672832000,-6827
599616372680518656,-6747
599616372688205440,-6648
599616372695892096,-6533
599616372703578752,-6448
599616372711265536,-6356
599616372718952192,-6247
599616372726638848,-6179
599616372734325632,-6106
599616372742012288,-6021
599616372749699072,-6061
599616372757385793,-6085
599616372765072512,-5743
599616372772759168,-5029
599616372780445952,-4457
599616372788132608,-4660
599616372795819264,-5409
599616372803506048,-5790
599616372811192704,-5696
599616372818879488,-5602
599616372826566144,-5463
599616372834252800,-5237
599616372841939584,-5145
599616372849626240,-5103
599616372857312896,-4989
599616372864999680,-4928
599616372872686336,-4898
599616372880373120,-4820
599616372888059776,-4759
599616372895746432,-4716
599616372903433216,-4650
599616372911119872,-4631
599616372918806528,-4629
599616372926493312,-4546
599616372934179968,-4459
599616372941866752,-4417
599616372949553408,-4367
599616372957240064,-4318
599616372964926848,-4266
599616372972613504,-4212
599616372980300160,-4177
599616372987986944,-4139
599616372995673600,-4099
599616373003360384,-4080
599616373011047040,-4056
599616373018733696,-4033
599616373026420480,-4033
599616373034107136,-4009
599616373041793792,-3969
599616373049480576,-3946
599616373057167232,-3908
599616373064854016,-3854
599616373072540672,-3804
599616373080227328,-3741
599616373087914112,-3682
599616373095600768,-3635
599616373103287424,-3566
599616373110974208,-3496
599616373118660864,-3434
599616373126347648,-3359
599616373134034304,-3307
599616373141720960,-3272
599616373149407744,-3208
599616373157094400,-3149
599616373164781056,-3114
599616373172467840,-3067
599616373180154496,-3022
599616373187841280,-2982
599616373195527936,-2940
599616373203214592,-2909
599616373210901376,-2881
599616373218588032,-2836
599616373226274688,-2803
599616373233961472,-2787
599616373241648128,-2761
599616373249334912,-2732
599616373257021568,-2706
599616373264708224,-2676
599616373272395008,-2655
599616373280081664,-2633
599616373287768320,-2589
599616373295455104,-2560
599616373303141760,-2549
599616373310828544,-2518
599616373318515172,-2490
599616373326201984,-2459
599616373333888768,-2419
599616373341575552,-2398
599616373349262336,-2388
599616373356949120,-2374
599616373364635904,-2377
599616373372322688,-2360
599616373380009344,-2313
599616373387696128,-2289
599616373395382912,-2285
599616373403069696,-2249
599616373410756480,-2200
599616373418443264,-2186
599616373426130048,-2172
599616373433816832,-2139
599616373441503616,-2132
599616373449190400,-2158
599616373456877184,-2172
599616373464563968,-2155
599616373472250624,-2127
599616373479937408,-2118
599616373487624192,-2113
599616373495310976,-2092
599616373502997760,-2070
599616373510684544,-2056
599616373518371328,-2070
599616373526058112,-2183
599616373533744896,-2282
599616373541431680,-2082
599616373549118464,-1493
599616373556805248,-940
599616373564491904,-1062
599616373572178688,-1809
599616373579865472,-2299
599616373587552256,-2249
599616373595239040,-2148
599616373602925824,-2066
599616373610612608,-1896
599616373618299392,-1847
599616373625986176,-1901
599616373633672960,-1870
599616373641359744,-1816
599616373649046528,-1814
599616373656733184,-1804
599616373664419968,-1781
599616373672106752,-1771
599616373679793536,-1759
599616373687480320,-1733
599616373695167104,-1708
599616373702853888,-1684
599616373710540672,-1660
599616373718227456,-1635
599616373725914240,-1604
599616373733601024,-1583
599616373741287808,-1554
599616373748974592,-1519
599616373756661248,-1496
599616373764348032,-1474
599616373772034816,-1446
599616373779721600,-1422
599616373787408384,-1413
599616373795095168,-1408
599616373802781952,-1397
599616373810468736,-1394
599616373818155520,-1413
599616373825842304,-1437
599616373833529088,-1448
599616373841215872,-1460
599616373848902528,-1481
599616373856589312,-1496
599616373864276096,-1486
599616373871962880,-1474
599616373879649642,-1467
599616373887336320,-1460
599616373895022976,-1463
599616373902709632,-1467
599616373910396160,-1458
599616373918082816,-1444
599616373925769472,-1460
599616373933456128,-1463
599616373941142784,-1448
599616373948829440,-1467
599616373956515968,-1470
599616373964202624,-1434
599616373971889280,-1413
599616373979575936,-1411
599616373987262592,-1411
599616373994949248,-1413
599616374002635776,-1392
599616374010322432,-1354
599616374018009088,-1352
599616374025695744,-1364
599616374033382400,-1366
599616374041069056,-1371
599616374048755584,-1359
599616374056442240,-1347
599616374064128896,-1352
599616374071815552,-1345
599616374079502208,-1342
599616374087188864,-1354
599616374094875392,-1342
599616374102562048,-1331
599616374110248704,-1345
599616374117935360,-1359
599616374125622016,-1373
599616374133308672,-1385
599616374140995200,-1387
599616374148681856,-1387
599616374156368512,-1392
599616374164055168,-1392
599616374171741824,-1397
599616374179428480,-1401
599616374187115008,-1392
599616374194801664,-1385
599616374202488320,-1382
599616374210174976,-1382
599616374217861632,-1397
599616374225548160,-1390
599616374233234816,-1333
599616374240921472,-1293
599616374248608128,-1298
599616374256294784,-1302
599616374263981440,-1307
599616374271667968,-1328
599616374279354624,-1349
599616374287041280,-1338
599616374294727936,-1319
599616374302414592,-1316
599616374310101248,-1319
599616374317787776,-1309
599616374325474432,-1293
599616374333161088,-1281
599616374340847744,-1307
599616374348534400,-1432
599616374356221056,-1536
599616374363907584,-1312
599616374371594240,-704
599616374379280896,-174
599616374386967552,-329
599616374394654208,-1038
599616374402340864,-1477
599616374410027392,-1446
599616374417714048,-1368
599616374425400704,-1283
599616374433087360,-1137
599616374440773934,-1112
599616374448460544,-1144
599616374456147200,-1093
599616374463833984,-1038
599616374471520640,-1038
599616374479207296,-1029
599616374486894080,-1008
599616374494580736,-996
599616374502267520,-977
599616374509954176,-956
599616374517640832,-942
599616374525327616,-925
599616374533014272,-904
599616374540700928,-890
599616374548387712,-874
599616374556074368,-852
599616374563761152,-829
599616374571447808,-819
599616374579134464,-826
599616374586821248,-819
599616374594507904,-791
599616374602194560,-775
599616374609881344,-779
599616374617568000,-791
599616374625254784,-808
599616374632941440,-838
599616374640628096,-874
599616374648314880,-902
599616374656001536,-935
599616374663688192,-977
599616374671374976,-1003
599616374679061632,-1015
599616374686748416,-1029
599616374694435072,-1034
599616374702121728,-1036
599616374709808512,-1043
599616374717495168,-1048
599616374725181824,-1043
599616374732868608,-1041
599616374740555264,-1060
599616374748242048,-1081
599616374755928704,-1090
599616374763615360,-1102
599616374771302144,-1130
599616374778988800,-1156
599616374786675456,-1154
599616374794362240,-1156
599616374802048896,-1166
599616374809735680,-1152
599616374817422336,-1123
599616374825108992,-1097
599616374832795776,-1062
599616374840482432,-1024
599616374848169088,-1005
599616374855855872,-994
599616374863542528,-977
599616374871229312,-958
599616374878915968,-930
599616374886602624,-904
599616374894289408,-899
599616374901976064,-899
599616374909662720,-888
599616374917349504,-885
599616374925036160,-895
599616374932722944,-904
599616374940409600,-899
599616374948096256,-890
599616374955783040,-890
599616374963469696,-881
599616374971156352,-862
599616374978843136,-857
599616374986529792,-859
599616374994216576,-843
599616375001903313,-836
599616375009590016,-822
599616375017276672,-801
599616375024963456,-834
599616375032650112,-855
599616375040336768,-786
599616375048023552,-775
599616375055710208,-852
599616375063396992,-857
599616375071083648,-826
599616375078770304,-876
599616375086457088,-918
599616375094143744,-916
599616375101830400,-930
599616375109517184,-958
599616375117203840,-977
599616375124890624,-965
599616375132577280,-921
599616375140263936,-902
599616375147950720,-904
599616375155637376,-890
599616375163324032,-916
599616375171010816,-987
599616375178697472,-989
599616375186384256,-949
599616375194070912,-942
599616375201757568,-937
599616375209444352,-918
599616375217131008,-925
599616375224817664,-928
599616375232504448,-907
599616375240191104,-968
599616375247877888,-1114
599616375255564544,-1112
599616375263251200,-749
599616375270937984,-87
599616375278624640,318
599616375286311296,-108
599616375293998080,-892
599616375301684736,-1206
599616375309371520,-1137
599616375317058176,-1086
599616375324744832,-1031
599616375332431616,-907
599616375340118272,-841
599616375347804928,-864
599616375355491712,-843
599616375363178368,-798
599616375370865152,-815
599616375378551808,-841
599616375386238464,-826
599616375393925248,-798
599616375401611904,-796
599616375409298560,-793
599616375416985344,-779
599616375424672000,-793
599616375432358784,-843
599616375440045440,-871
599616375447732096,-874
599616375455418880,-911
599616375463105536,-965
599616375470792192,-973
599616375478478976,-961
599616375486165632,-958
599616375493852416,-963
599616375501539072,-984
599616375509225728,-1008
599616375516912512,-1029
599616375524599168,-1046
599616375532285824,-1048
599616375539972608,-1060
599616375547659264,-1100
599616375555346048,-1135
599616375563032692,-1119
599616375570719360,-1083
599616375578406016,-1090
599616375586092800,-1079
599616375593779456,-1010
599616375601466112,-970
599616375609152896,-989
599616375616839552,-998
599616375624526336,-980
599616375632212992,-956
599616375639899648,-930
599616375647586432,-918
599616375655273088,-909
599616375662959744,-925
599616375670646528,-940
599616375678333184,-928
599616375686019968,-932
599616375693706624,-885
599616375701393280,-805
599616375709080064,-709
599616375716766720,-629
599616375724453376,-647
599616375732140160,-652
599616375739826816,-676
599616375747513600,-727
599616375755200256,-643
599616375762886912,-586
599616375770573696,-612
599616375778260352,-570
599616375785947008,-558
599616375793633792,-598
599616375801320448,-612
599616375809007232,-636
599616375816693888,-652
599616375824380544,-607
599616375832067328,-560
599616375839753984,-541
599616375847440640,-506
599616375855127424,-461
599616375862814080,-449
599616375870500864,-454
599616375878187520,-471
599616375885874176,-485
599616375893560960,-473
599616375901247616,-473
599616375908934272,-501
599616375916621056,-506
599616375924307712,-490
599616375931994496,-515
599616375939681152,-558
599616375947367808,-548
599616375955054592,-525
599616375962741248,-541
599616375970427904,-563
599616375978114688,-556
599616375985801344,-548
599616375993488128,-558
599616376001174784,-567
599616376008861440,-598
599616376016548224,-650
599616376024234880,-685
599616376031921536,-709
599616376039608320,-744
599616376047294976,-758
599616376054981760,-732
599616376062668416,-744
599616376070355072,-808
599616376078041856,-777
599616376085728512,-727
599616376093415168,-843
599616376101101952,-949
599616376108788608,-874
599616376116475392,-888
599616376124162071,-956
599616376131848704,-782
599616376139535360,-702
599616376147222144,-782
599616376154908800,-697
599616376162595456,-727
599616376170282240,-944
599616376177968896,-850
599616376185655680,-261
599616376193342336,461
599616376201028992,631
599616376208715776,-44
599616376216402432,-770
599616376224089088,-911
599616376231775872,-866
599616376239462528,-850
599616376247149312,-777
599616376254835968,-793
599616376262522624,-878
599616376270209408,-881
599616376277896064,-864
599616376285582720,-895
599616376293269504,-923
599616376300956160,-921
599616376308642944,-918
599616376316329600,-907
599616376324016256,-895
599616376331703040,-911
599616376339389696,-914
599616376347076352,-878
599616376354763136,-850
599616376362449792,-836
599616376370136576,-829
599616376377823232,-819
599616376385509888,-796
599616376393196672,-758
599616376400883328,-723
599616376408569984,-711
599616376416256768,-709
599616376423943424,-697
599616376431630208,-695
599616376439316864,-706
599616376447003520,-718
599616376454690304,-718
599616376462376960,-706
599616376470063616,-711
599616376477750400,-758
599616376485437056,-796
599616376493123840,-796
599616376500810496,-801
599616376508497152,-819
599616376516183936,-829
599616376523870592,-834
599616376531557248,-812
599616376539244032,-779
599616376546930688,-791
599616376554617472,-845
599616376562304128,-864
599616376569990784,-772
599616376577677568,-687
599616376585364224,-685
599616376593050880,-683
599616376600737664,-699
599616376608424320,-723
599616376616111104,-678
599616376623797760,-603
599616376631484416,-581
599616376639171200,-607
599616376646857856,-588
599616376654544512,-515
599616376662231296,-475
599616376669917952,-473
599616376677604736,-440
599616376685291450,-409
599616376692978048,-419
599616376700664704,-417
599616376708351488,-395
599616376716038144,-400
599616376723724800,-426
599616376731411584,-445
599616376739098240,-478
599616376746785024,-527
599616376754471680,-556
599616376762158336,-574
599616376769845120,-619
599616376777531776,-666
599616376785218432,-697
599616376792905216,-713
599616376800591872,-730
599616376808278656,-746
599616376815965312,-756
599616376823651968,-753
599616376831338752,-749
599616376839025408,-753
599616376846712064,-753
599616376854398848,-727
599616376862085504,-687
599616376869772288,-654
599616376877458944,-626
599616376885145600,-612
599616376892832384,-607
599616376900519040,-621
599616376908205696,-650
599616376915892480,-664
599616376923579136,-647
599616376931265920,-629
599616376938952576,-676
599616376946639232,-727
599616376954326016,-702
599616376962012672,-723
599616376969699328,-739
599616376977386112,-666
599616376985072768,-725
599616376992759552,-775
599616377000446208,-360
599616377008132864,313
599616377015819648,419
599616377023506304,-275
599616377031192960,-907
599616377038879744,-888
599616377046566400,-739
599616377054253184,-706
599616377061939840,-527
599616377069626496,-412
599616377077313280,-497
599616377084999936,-508
599616377092686592,-457
599616377100373376,-490
599616377108060032,-534
599616377115746816,-541
599616377123433472,-558
599616377131120128,-593
599616377138806912,-629
599616377146493568,-659
599616377154180224,-666
599616377161867008,-652
599616377169553664,-662
599616377177240448,-678
599616377184927104,-671
599616377192613760,-650
599616377200300544,-626
599616377207987200,-614
599616377215673856,-612
599616377223360640,-600
599616377231047296,-591
599616377238734080,-588
599616377246420833,-572
599616377254107520,-553
599616377261794176,-572
599616377269480960,-607
599616377277167616,-614
599616377284854272,-633
599616377292541056,-666
599616377300227712,-685
599616377307914496,-716
599616377315601152,-772
599616377323287808,-758
599616377330974592,-704
599616377338661248,-786
599616377346347904,-883
599616377354034688,-808
599616377361721344,-629
599616377369408128,-487
599616377377094784,-541
599616377384781440,-607
599616377392468224,-464
599616377400154880,-343
599616377407841536,-318
599616377415528320,-233
599616377423214976,-94
599616377430901760,61
599616377438588416,200
599616377446275072,275
599616377453961856,313
599616377461648512,374
599616377469335168,454
599616377477021952,515
599616377484708608,558
599616377492395392,577
599616377500082048,553
599616377507768704,482
599616377515455488,372
599616377523142144,242
599616377530828800,108
599616377538515584,-37
599616377546202240,-174
599616377553889024,-285
599616377561575680,-379
599616377569262336,-480
599616377576949120,-581
599616377584635776,-657
599616377592322432,-699
599616377600009216,-725
599616377607695872,-744
599616377615382656,-768
599616377623069312,-789
599616377630755968,-805
599616377638442752,-822
599616377646129408,-822
599616377653816064,-789
599616377661502848,-770
599616377669189504,-777
599616377676876288,-784
599616377684562944,-805
599616377692249600,-855
599616377699936384,-897
599616377707623040,-895
599616377715309696,-909
599616377722996480,-1010
599616377730683136,-1074
599616377738369920,-1022
599616377746056576,-883
599616377753743232,-723
599616377761430016,-763
599616377769116672,-916
599616377776803328,-763
599616377784490112,-146
599616377792176768,647
599616377799863552,1048
599616377807550212,812
599616377815236480,558
599616377822922752,756
599616377830609024,1093
599616377838295296,1394
599616377845981568,1668
599616377853667968,1698
599616377861354240,1524
599616377869040512,1326
599616377876726784,1076
599616377884413056,756
599616377892099328,431
599616377899785600,110
599616377907471872,-195
599616377915158144,-454
599616377922844544,-650
599616377930530816,-782
599616377938217088,-897
599616377945903360,-994
599616377953589632,-1050
599616377961275904,-1090
599616377968962176,-1102
599616377976648448,-1088
599616377984334720,-1081
599616377992020992,-1046
599616377999707392,-1001
599616378007393664,-994
599616378015079936,-987
599616378022766208,-961
599616378030452480,-954
599616378038138752,-970
599616378045825024,-984
599616378053511296,-989
599616378061197568,-1001
599616378068883968,-1031
599616378076570240,-1062
599616378084256512,-1076
599616378091942784,-1086
599616378099629056,-1083
599616378107315328,-1079
599616378115001600,-1071
599616378122687872,-1067
599616378130374144,-1095
599616378138060544,-1123
599616378145746816,-1130
599616378153433088,-1144
599616378161119360,-1208
599616378168805632,-1196
599616378176491904,-956
599616378184178176,-768
599616378191864448,-824
599616378199550720,-888
599616378207236992,-874
599616378214923392,-859
599616378222609664,-859
599616378230295936,-841
599616378237982208,-746
599616378245668480,-676
599616378253354752,-645
599616378261041024,-492
599616378268727296,-320
599616378276413568,-313
599616378284099968,-336
599616378291786240,-320
599616378299472512,-341
599616378307158784,-391
599616378314845056,-440
599616378322531328,-501
599616378330217600,-577
599616378337903872,-664
599616378345590144,-753
599616378353276544,-819
599616378360962816,-866
599616378368649073,-916
599616378376335744,-956
599616378384022400,-982
599616378391709184,-1008
599616378399395840,-1036
599616378407082496,-1046
599616378414769280,-1036
599616378422455936,-1024
599616378430142720,-1022
599616378437829376,-1022
599616378445516032,-1001
599616378453202816,-944
599616378460889472,-897
599616378468576128,-892
599616378476262912,-878
599616378483949568,-874
599616378491636352,-914
599616378499323008,-911
599616378507009664,-864
599616378514696448,-888
599616378522383104,-937
599616378530069760,-902
599616378537756544,-857
599616378545443200,-899
599616378553129984,-977
599616378560816640,-1017
599616378568503296,-1013
599616378576190080,-843
599616378583876736,-339
599616378591563392,162
599616378599250176,-28
599616378606936832,-751
599616378614623616,-1069
599616378622310272,-973
599616378629996928,-965
599616378637683712,-897
599616378645370368,-739
599616378653057024,-742
599616378660743808,-763
599616378668430464,-692
599616378676117248,-664
599616378683803904,-676
599616378691490560,-671
599616378699177344,-683
599616378706864000,-699
599616378714550656,-704
599616378722237440,-727
599616378729924096,-742
599616378737610880,-735
599616378745297536,-744
599616378752984192,-758
599616378760670976,-749
599616378768357632,-739
599616378776044288,-732
599616378783731072,-732
599616378791417728,-735
599616378799104512,-720
599616378806791168,-697
599616378814477824,-692
599616378822164608,-690
599616378829851264,-683
599616378837537920,-685
599616378845224704,-692
599616378852911360,-699
599616378860598144,-711
599616378868284800,-727
599616378875971456,-749
599616378883658240,-760
599616378891344896,-765
599616378899031552,-765
599616378906718336,-742
599616378914404992,-699
599616378922091776,-699
599616378929778452,-720
599616378937465088,-716
599616378945151744,-697
599616378952838528,-690
599616378960525184,-704
599616378968211840,-730
599616378975898624,-727
599616378983585280,-692
599616378991272064,-683
599616378998958720,-678
599616379006645376,-676
599616379014332160,-690
599616379022018816,-636
599616379029705472,-574
599616379037392256,-581
599616379045078912,-591
599616379052765696,-588
599616379060452352,-600
599616379068139008,-617
599616379075825792,-617
599616379083512448,-600
599616379091199104,-596
599616379098885888,-614
599616379106572544,-633
599616379114259328,-629
599616379121945984,-621
599616379129632640,-631
599616379137319424,-636
599616379145006080,-647
599616379152692736,-659
599616379160379520,-645
599616379168066176,-633
599616379175752960,-647
599616379183439616,-654
599616379191126272,-659
599616379198813056,-662
599616379206499712,-647
599616379214186368,-662
599616379221873152,-683
599616379229559808,-633
599616379237246592,-572
599616379244933248,-593
599616379252619904,-617
599616379260306688,-588
599616379267993344,-572
599616379275680000,-579
599616379283366784,-581
599616379291053440,-565
599616379298740224,-541
599616379306426880,-551
599616379314113536,-541
599616379321800320,-454
599616379329486976,-391
599616379337173632,-409
599616379344860416,-421
599616379352547072,-428
599616379360233856,-454
599616379367920512,-438
599616379375607168,-407
599616379383293952,-405
599616379390980608,-409
599616379398667264,-405
599616379406354048,-395
599616379414040704,-393
599616379421727488,-438
599616379429414144,-584
599616379437100800,-716
599616379444787584,-506
599616379452474240,127
599616379460160896,732
599616379467847680,633
599616379475534336,-127
599616379483221120,-685
599616379490907831,-727
599616379498594432,-643
599616379506281088,-544
599616379513967872,-457
599616379521654528,-492
599616379529341184,-527
599616379537027968,-490
599616379544714624,-473
599616379552401408,-482
599616379560088064,-464
599616379567774720,-442
599616379575461504,-449
599616379583148160,-433
599616379590834816,-419
599616379598521600,-457
599616379606208256,-454
599616379613895040,-372
599616379621581696,-362
599616379629268352,-388
599616379636955136,-308
599616379644641792,-266
599616379652328448,-332
599616379660015232,-348
599616379667701888,-315
599616379675388672,-315
599616379683075328,-308
599616379690761984,-285
599616379698448768,-285
599616379706135424,-308
599616379713822080,-320
599616379721508864,-325
599616379729195520,-351
599616379736882304,-388
599616379744568960,-414
599616379752255616,-438
599616379759942400,-461
599616379767629056,-473
599616379775315712,-475
599616379783002496,-480
599616379790689152,-482
599616379798375936,-490
599616379806062592,-492
599616379813749248,-487
599616379821436032,-487
599616379829122688,-490
599616379836809344,-494
599616379844496128,-492
599616379852182784,-478
599616379859869568,-473
599616379867556224,-473
599616379875242880,-471
599616379882929664,-459
599616379890616320,-447
599616379898302976,-442
599616379905989760,-438
599616379913676416,-433
599616379921363200,-426
599616379929049856,-424
599616379936736512,-431
599616379944423296,-433
599616379952109952,-424
599616379959796608,-405
599616379967483392,-402
599616379975170048,-428
599616379982856832,-440
599616379990543488,-424
599616379998230144,-421
599616380005916928,-424
599616380013603584,-405
599616380021290240,-395
599616380028977024,-405
599616380036663680,-414
599616380044350464,-428
599616380052037210,-431
599616380059723904,-400
599616380067410560,-367
599616380075097344,-384
599616380082784000,-417
599616380090470656,-376
599616380098157440,-318
599616380105844096,-346
599616380113530880,-393
599616380121217536,-376
599616380128904192,-355
599616380136590976,-362
599616380144277632,-348
599616380151964288,-320
599616380159651072,-313
599616380167337728,-299
599616380175024512,-280
599616380182711168,-280
599616380190397824,-303
599616380198084608,-355
599616380205771264,-402
599616380213457920,-405
599616380221144704,-407
599616380228831360,-440
599616380236518144,-464
599616380244204800,-473
599616380251891456,-487
599616380259578240,-513
599616380267264896,-584
599616380274951552,-735
599616380282638336,-796
599616380290324992,-464
599616380298011776,179
599616380305698432,492
599616380313385088,-16
599616380321071872,-768
599616380328758528,-932
599616380336445184,-791
599616380344131968,-760
599616380351818624,-619
599616380359505408,-464
599616380367192064,-506
599616380374878720,-539
599616380382565504,-482
599616380390252160,-464
599616380397938816,-473
599616380405625600,-468
599616380413312256,-454
599616380420999040,-445
599616380428685696,-438
599616380436372352,-431
599616380444059136,-419
599616380451745792,-407
599616380459432448,-388
599616380467119232,-365
599616380474805888,-400
599616380482492672,-426
599616380490179328,-346
599616380497865984,-308
599616380505552768,-351
599616380513239424,-301
599616380520926080,-223
599616380528612864,-249
599616380536299520,-287
599616380543986304,-261
599616380551672960,-240
599616380559359616,-280
599616380567046400,-339
599616380574733056,-336
599616380582419712,-315
599616380590106496,-351
599616380597793152,-360
599616380605479936,-332
599616380613166593,-320
599616380620853248,-308
599616380628539904,-292
599616380636226688,-287
599616380643913344,-278
599616380651600000,-273
599616380659286784,-278
599616380666973440,-287
599616380674660224,-303
599616380682346880,-320
599616380690033536,-348
599616380697720320,-395
599616380705406976,-421
599616380713093632,-414
599616380720780416,-419
599616380728467072,-428
599616380736153856,-414
599616380743840512,-405
599616380751527168,-405
599616380759213952,-395
599616380766900608,-391
599616380774587264,-402
599616380782274048,-412
599616380789960704,-414
599616380797647488,-417
599616380805334144,-424
599616380813020800,-435
599616380820707584,-445
599616380828394240,-445
599616380836080896,-445
599616380843767680,-440
599616380851454336,-440
599616380859141120,-452
599616380866827776,-459
599616380874514432,-442
599616380882201216,-431
599616380889887872,-424
599616380897574528,-417
599616380905261312,-414
599616380912947968,-400
599616380920634752,-374
599616380928321408,-355
599616380936008064,-343
599616380943694848,-343
599616380951381504,-355
599616380959068160,-360
599616380966754944,-372
599616380974441600,-405
599616380982128384,-421
599616380989815040,-402
599616380997501696,-379
599616381005188480,-386
599616381012875136,-405
599616381020561792,-417
599616381028248576,-442
599616381035935232,-471
599616381043622016,-471
599616381051308672,-461
599616381058995328,-468
599616381066682112,-478
599616381074368768,-482
599616381082055424,-494
599616381089742208,-508
599616381097428864,-579
599616381105115648,-716
599616381112802304,-657
599616381120488960,-181
599616381128175744,435
599616381135862400,532
599616381143549056,-89
599616381151235840,-678
599616381158922496,-732
599616381166609280,-624
599616381174295972,-560
599616381181982592,-457
599616381189669248,-405
599616381197356032,-409
599616381205042688,-393
599616381212729344,-395
599616381220416128,-428
599616381228102784,-447
599616381235789568,-461
599616381243476224,-473
599616381251162880,-452
599616381258849664,-433
599616381266536320,-438
599616381274222976,-433
599616381281909760,-438
599616381289596416,-466
599616381297283200,-459
599616381304969856,-414
599616381312656512,-412
599616381320343296,-445
599616381328029952,-438
599616381335716608,-400
599616381343403392,-372
599616381351090048,-360
599616381358776832,-376
599616381366463488,-405
599616381374150144,-388
599616381381836928,-393
599616381389523584,-440
599616381397210240,-386
599616381404897024,-308
599616381412583680,-384
599616381420270464,-447
599616381427957120,-369
599616381435643776,-322
599616381443330560,-372
599616381451017216,-398
599616381458703872,-381
599616381466390656,-367
599616381474077312,-367
599616381481764096,-360
599616381489450752,-346
599616381497137408,-360
599616381504824192,-384
599616381512510848,-381
599616381520197504,-379
599616381527884288,-386
599616381535570944,-398
599616381543257728,-407
599616381550944384,-417
599616381558631040,-417
599616381566317824,-412
599616381574004480,-417
599616381581691136,-426
599616381589377920,-424
599616381597064576,-428
599616381604751360,-445
599616381612438016,-452
599616381620124672,-445
599616381627811456,-421
599616381635498112,-402
599616381643184768,-426
599616381650871552,-445
599616381658558208,-421
599616381666244992,-402
599616381673931648,-398
599616381681618304,-381
599616381689305088,-369
599616381696991744,-374
599616381704678400,-376
599616381712365184,-367
599616381720051840,-362
599616381727738624,-376
599616381735425351,-400
599616381743112064,-412
599616381750798720,-414
599616381758485504,-421
599616381766172160,-438
599616381773858816,-475
599616381781545600,-518
599616381789232256,-534
599616381796919040,-523
599616381804605696,-414
599616381812292352,-275
599616381819979136,-301
599616381827665792,-421
599616381835352448,-402
599616381843039232,-315
599616381850725888,-348
599616381858412672,-365
599616381866099328,-278
599616381873785984,-294
599616381881472768,-367
599616381889159424,-343
599616381896846080,-353
599616381904532864,-501
599616381912219520,-600
599616381919906304,-348
599616381927592960,263
599616381935279616,775
599616381942966400,588
599616381950653056,-176
599616381958339712,-687
599616381966026496,-695
599616381973713152,-591
599616381981399936,-539
599616381989086592,-527
599616381996773248,-558
599616382004460032,-577
599616382012146688,-563
599616382019833344,-541
599616382027520128,-537
599616382035206784,-553
599616382042893568,-558
599616382050580224,-513
599616382058266880,-466
599616382065953664,-466
599616382073640320,-464
599616382081326976,-433
599616382089013760,-414
599616382096700416,-407
599616382104387200,-386
599616382112073856,-365
599616382119760512,-348
599616382127447296,-327
599616382135133952,-313
599616382142820608,-313
599616382150507392,-313
599616382158194048,-315
599616382165880832,-332
599616382173567488,-358
599616382181254144,-398
599616382188940928,-471
599616382196627584,-475
599616382204314240,-461
599616382212001024,-461
599616382219687680,-318
599616382227374464,-266
599616382235061120,-417
599616382242747776,-457
599616382250434560,-381
599616382258121216,-393
599616382265807872,-464
599616382273494656,-497
599616382281181312,-447
599616382288868096,-369
599616382296554730,-365
599616382304241024,-369
599616382311927296,-339
599616382319613568,-360
599616382327299840,-400
599616382334986112,-379
599616382342672512,-369
599616382350358784,-388
599616382358045056,-360
599616382365731328,-353
599616382373417600,-402
599616382381103872,-424
599616382388790144,-428
599616382396476416,-461
599616382404162688,-485
599616382411849088,-494
599616382419535360,-511
599616382427221632,-527
