599616050107071488,-346
599616050114763776,-407
599616050122456064,-452
599616050130148352,-485
599616050137840768,-499
599616050145533056,-501
599616050153225344,-504
599616050160917632,-506
599616050168609920,-511
599616050176302208,-511
599616050183994624,-497
599616050191686912,-485
599616050199379200,-478
599616050207071488,-475
599616050214763776,-475
599616050222456064,-471
599616050230148352,-461
599616050237840768,-454
599616050245533056,-449
599616050253225344,-447
599616050260917632,-454
599616050268609920,-461
599616050276302208,-457
599616050283994624,-449
599616050291686912,-454
599616050299379200,-464
599616050307071488,-473
599616050314763776,-473
599616050322456064,-473
599616050330148352,-490
599616050337840768,-506
599616050345533056,-501
599616050353225344,-497
599616050360917632,-494
599616050368609920,-482
599616050376302208,-461
599616050383994624,-449
599616050391686912,-445
599616050399379200,-449
599616050407071488,-468
599616050414763776,-480
599616050422456064,-473
599616050430148352,-468
599616050437840768,-473
599616050445533056,-464
599616050453225344,-454
599616050460917632,-452
599616050468609920,-447
599616050476302208,-442
599616050483994624,-478
599616050491686912,-553
599616050499379200,-513
599616050507071488,-204
599616050514763776,89
599616050522456064,-174
599616050530148352,-881
599616050537840768,-1215
599616050545533056,-973
599616050553225344,-735
599616050560917632,-596
599616050568609920,-346
599616050576302208,-214
599616050583994624,-268
599616050591686912,-275
599616050599379200,-230
599616050607071488,-235
599616050614763776,-249
599616050622456064,-240
599616050630148352,-233
599616050637840768,-237
599616050645533056,-228
599616050653225344,-209
599616050660917612,-202
599616050668605056,-193
599616050676292480,-171
599616050683980032,-150
599616050691667456,-136
599616050699354880,-120
599616050707042432,-113
599616050714729856,-106
599616050722417408,-94
599616050730104832,-91
599616050737792256,-101
599616050745479808,-120
599616050753167232,-153
599616050760854656,-195
599616050768542208,-235
599616050776229632,-285
599616050783917056,-341
599616050791604608,-391
599616050799292032,-428
599616050806979584,-449
599616050814667008,-459
599616050822354432,-466
599616050830041984,-482
599616050837729408,-494
599616050845416832,-487
599616050853104384,-466
599616050860791808,-454
599616050868479232,-442
599616050876166784,-426
599616050883854208,-412
599616050891541632,-400
599616050899229184,-386
599616050906916608,-374
599616050914604160,-369
599616050922291584,-358
599616050929979008,-346
599616050937666560,-341
599616050945353984,-329
599616050953041408,-320
599616050960728960,-325
599616050968416384,-327
599616050976103808,-325
599616050983791360,-325
599616050991478784,-322
599616050999166336,-315
599616051006853760,-315
599616051014541184,-315
599616051022228736,-315
599616051029916160,-318
599616051037603584,-315
599616051045291136,-313
599616051052978560,-315
599616051060665984,-313
599616051068353536,-315
599616051076040960,-320
599616051083728512,-315
599616051091415936,-301
599616051099103360,-285
599616051106790912,-273
599616051114478336,-268
599616051122165760,-278
599616051129853312,-301
599616051137540736,-310
599616051145228160,-306
599616051152915712,-303
599616051160603136,-306
599616051168290560,-303
599616051175978112,-296
599616051183665536,-294
599616051191353088,-301
599616051199040512,-325
599616051206727936,-398
599616051214415488,-431
599616051222102940,-223
599616051229790080,148
599616051237477248,188
599616051245164288,-374
599616051252851456,-987
599616051260538624,-1015
599616051268225664,-742
599616051275912832,-556
599616051283599872,-325
599616051291287040,-150
599616051298974208,-181
599616051306661248,-207
599616051314348416,-160
599616051322035584,-157
599616051329722624,-179
599616051337409792,-171
599616051345096960,-179
599616051352784000,-193
599616051360471168,-176
599616051368158336,-162
599616051375845376,-164
599616051383532544,-155
599616051391219584,-136
599616051398906752,-122
599616051406593920,-103
599616051414280960,-84
599616051421968128,-73
599616051429655296,-58
599616051437342336,-47
599616051445029504,-42
599616051452716672,-44
599616051460403712,-61
599616051468090880,-91
599616051475777920,-124
599616051483465088,-162
599616051491152256,-209
599616051498839296,-270
599616051506526464,-334
599616051514213632,-386
599616051521900672,-419
599616051529587840,-435
599616051537275008,-442
599616051544962048,-449
599616051552649216,-454
599616051560336384,-459
599616051568023424,-454
599616051575710592,-440
599616051583397632,-433
599616051591084800,-426
599616051598771968,-419
599616051606459008,-417
599616051614146176,-412
599616051621833344,-395
599616051629520384,-381
599616051637207552,-374
599616051644894720,-372
599616051652581760,-374
599616051660268928,-369
599616051667955968,-358
599616051675643136,-358
599616051683330304,-360
599616051691017344,-365
599616051698704512,-372
599616051706391680,-372
599616051714078720,-369
599616051721765888,-369
599616051729453056,-374
599616051737140096,-376
599616051744827264,-386
599616051752514304,-388
599616051760201472,-386
599616051767888640,-386
599616051775575680,-391
599616051783262837,-400
599616051790950016,-414
599616051798637184,-414
599616051806324224,-412
599616051814011392,-414
599616051821698560,-414
599616051829385600,-407
599616051837072768,-391
599616051844759808,-386
599616051852446976,-386
599616051860134144,-367
599616051867821184,-376
599616051875508352,-424
599616051883195520,-445
599616051890882560,-421
599616051898569728,-405
599616051906256896,-407
599616051913943936,-405
599616051921631104,-407
599616051929318272,-412
599616051937005312,-409
599616051944692480,-442
599616051952379520,-530
599616051960066688,-511
599616051967753856,-204
599616051975440896,162
599616051983128064,25
599616051990815232,-652
599616051998502272,-1112
599616052006189440,-970
599616052013876608,-732
599616052021563648,-588
599616052029250816,-339
599616052036937856,-190
599616052044625024,-242
599616052052312192,-254
599616052059999232,-212
599616052067686400,-223
599616052075373568,-233
599616052083060608,-212
599616052090747776,-209
599616052098434944,-214
599616052106121984,-212
599616052113809152,-212
599616052121496320,-204
599616052129183360,-188
599616052136870528,-174
599616052144557568,-162
599616052152244736,-150
599616052159931904,-139
599616052167618944,-117
599616052175306112,-101
599616052182993280,-94
599616052190680320,-94
599616052198367488,-106
599616052206054656,-127
599616052213741696,-148
599616052221428864,-176
599616052229115904,-216
599616052236803072,-268
599616052244490240,-332
599616052252177280,-398
599616052259864448,-438
599616052267551616,-464
599616052275238656,-485
599616052282925824,-497
599616052290612992,-499
599616052298300032,-499
599616052305987200,-490
599616052313674240,-480
599616052321361408,-473
599616052329048576,-468
599616052336735616,-466
599616052344422734,-473
599616052352109952,-480
599616052359797120,-459
599616052367484160,-435
599616052375171328,-433
599616052382858496,-431
599616052390545536,-419
599616052398232704,-402
599616052405919744,-388
599616052413606912,-395
599616052421294080,-419
599616052428981120,-421
599616052436668288,-402
599616052444355456,-398
599616052452042496,-398
599616052459729664,-395
599616052467416832,-398
599616052475103872,-402
599616052482791040,-407
599616052490478208,-402
599616052498165248,-395
599616052505852416,-400
599616052513539456,-405
599616052521226624,-400
599616052528913792,-402
599616052536600832,-405
599616052544288000,-393
599616052551975168,-369
599616052559662208,-355
599616052567349376,-353
599616052575036544,-348
599616052582723584,-358
599616052590410752,-384
599616052598097792,-393
599616052605784960,-386
599616052613472128,-381
599616052621159168,-381
599616052628846336,-381
599616052636533504,-379
599616052644220544,-374
599616052651907712,-376
599616052659594880,-398
599616052667281920,-473
599616052674969088,-508
599616052682656256,-296
599616052690343296,87
599616052698030464,141
599616052705717504,-421
599616052713404672,-1029
599616052721091840,-1046
599616052728778880,-775
599616052736466048,-598
599616052744153216,-367
599616052751840256,-188
599616052759527424,-219
599616052767214592,-247
599616052774901632,-204
599616052782588800,-207
599616052790275840,-219
599616052797963008,-204
599616052805650176,-200
599616052813337216,-204
599616052821024384,-195
599616052828711552,-188
599616052836398592,-179
599616052844085760,-171
599616052851772928,-183
599616052859459968,-176
599616052867147136,-143
599616052874834176,-122
599616052882521344,-103
599616052890208512,-82
599616052897895552,-68
599616052905582631,-63
599616052913270144,-68
599616052920957696,-82
599616052928645248,-98
599616052936332800,-127
599616052944020352,-179
599616052951707904,-237
599616052959395328,-308
599616052967082880,-374
599616052974770432,-417
599616052982457984,-442
599616052990145536,-466
599616052997833088,-478
599616053005520640,-480
599616053013208192,-478
599616053020895744,-468
599616053028583296,-459
599616053036270720,-454
599616053043958272,-445
599616053051645824,-438
599616053059333376,-424
599616053067020928,-402
599616053074708480,-395
599616053082396032,-398
599616053090083584,-393
599616053097771136,-379
599616053105458688,-367
599616053113146240,-358
599616053120833664,-353
599616053128521216,-353
599616053136208768,-351
599616053143896320,-348
599616053151583872,-343
599616053159271424,-339
599616053166958976,-346
599616053174646528,-355
599616053182334080,-351
599616053190021632,-346
599616053197709184,-346
599616053205396608,-343
599616053213084160,-343
599616053220771712,-348
599616053228459264,-353
599616053236146816,-346
599616053243834368,-339
599616053251521920,-339
599616053259209472,-341
599616053266897024,-343
599616053274584576,-343
599616053282272000,-341
599616053289959552,-336
599616053297647104,-332
599616053305334656,-334
599616053313022208,-339
599616053320709760,-341
599616053328397312,-339
599616053336084864,-336
599616053343772416,-346
599616053351459968,-358
599616053359147520,-346
599616053366834944,-320
599616053374522496,-306
599616053382210048,-303
599616053389897600,-315
599616053397585152,-343
599616053405272704,-360
599616053412960256,-351
599616053420647808,-346
599616053428335360,-346
599616053436022912,-339
599616053443710464,-334
599616053451397888,-343
599616053459085440,-348
599616053466773050,-376
599616053474460160,-452
599616053482147328,-431
599616053489834368,-134
599616053497521536,204
599616053505208704,61
599616053512895744,-598
599616053520582912,-1090
599616053528269952,-989
599616053535957120,-716
599616053543644288,-527
599616053551331328,-294
599616053559018496,-164
599616053566705664,-207
599616053574392704,-214
599616053582079872,-179
599616053589767040,-190
599616053597454080,-202
599616053605141248,-181
599616053612828416,-174
599616053620515456,-181
599616053628202624,-176
599616053635889664,-167
599616053643576832,-162
599616053651264000,-150
599616053658951040,-131
599616053666638208,-115
599616053674325376,-103
599616053682012416,-91
599616053689699584,-75
599616053697386752,-56
599616053705073792,-42
599616053712760960,-40
599616053720448000,-49
599616053728135168,-73
599616053735822336,-94
599616053743509376,-117
599616053751196544,-160
599616053758883712,-204
599616053766570752,-259
599616053774257920,-325
599616053781945088,-374
599616053789632128,-398
599616053797319296,-417
599616053805006464,-435
599616053812693504,-447
599616053820380672,-452
599616053828067712,-440
599616053835754880,-428
599616053843442048,-421
599616053851129088,-417
599616053858816256,-421
599616053866503424,-433
599616053874190464,-414
599616053881877632,-391
599616053889564800,-386
599616053897251840,-384
599616053904939008,-376
599616053912626048,-372
599616053920313216,-358
599616053928000384,-346
599616053935687424,-346
599616053943374592,-343
599616053951061760,-348
599616053958748800,-353
599616053966435968,-343
599616053974123136,-339
599616053981810176,-343
599616053989497344,-343
599616053997184384,-346
599616054004871552,-348
599616054012558720,-348
599616054020245760,-346
599616054027932947,-341
599616054035620096,-346
599616054043307264,-353
599616054050994304,-351
599616054058681472,-341
599616054066368640,-336
599616054074055680,-341
599616054081742848,-348
599616054089429888,-351
599616054097117056,-343
599616054104804224,-336
599616054112491264,-334
599616054120178432,-343
599616054127865600,-362
599616054135552640,-360
599616054143239808,-327
599616054150926976,-310
599616054158614016,-306
599616054166301184,-306
599616054173988352,-332
599616054181675392,-360
599616054189362560,-353
599616054197049600,-334
599616054204736768,-332
599616054212423936,-339
599616054220110976,-341
599616054227798144,-332
599616054235485312,-327
599616054243172352,-341
599616054250859520,-391
599616054258546688,-457
599616054266233728,-372
599616054273920896,-32
599616054281607936,188
599616054289295104,-186
599616054296982272,-871
599616054304669312,-1102
599616054312356480,-848
599616054320043648,-624
599616054327730688,-440
599616054335417856,-204
599616054343105024,-139
599616054350792064,-200
599616054358479232,-190
599616054366166400,-176
599616054373853440,-204
599616054381540608,-195
599616054389227648,-174
599616054396914816,-188
599616054404601984,-186
599616054412289024,-167
599616054419976192,-167
599616054427663360,-157
599616054435350400,-131
599616054443037568,-129
599616054450724736,-129
599616054458411776,-98
599616054466098944,-68
599616054473785984,-58
599616054481473152,-49
599616054489160320,-35
599616054496847360,-35
599616054504534528,-49
599616054512221696,-70
599616054519908736,-96
599616054527595904,-136
599616054535283072,-183
599616054542970112,-235
599616054550657280,-294
599616054558344320,-348
599616054566031488,-379
599616054573718656,-400
599616054581405696,-424
599616054589092844,-433
599616054596780032,-426
599616054604467200,-421
599616054612154240,-424
599616054619841408,-421
599616054627528576,-417
599616054635215616,-405
599616054642902784,-391
599616054650589824,-386
599616054658276992,-381
599616054665964160,-374
599616054673651200,-362
599616054681338368,-346
599616054689025536,-346
599616054696712576,-351
599616054704399744,-336
599616054712086912,-325
599616054719773952,-322
599616054727461120,-310
599616054735148288,-292
599616054742835328,-280
599616054750522496,-275
599616054758209536,-278
599616054765896704,-275
599616054773583872,-249
599616054781270912,-226
599616054788958080,-207
599616054796645248,-176
599616054804332288,-146
599616054812019456,-120
599616054819706624,-82
599616054827393664,-49
599616054835080832,-30
599616054842767872,-4
599616054850455040,23
599616054858142208,49
599616054865829248,65
599616054873516416,70
599616054881203584,84
599616054888890624,113
599616054896577792,131
599616054904264960,141
599616054911952000,155
599616054919639168,169
599616054927326336,174
599616054935013376,167
599616054942700544,164
599616054950387584,183
599616054958074752,216
599616054965761920,226
599616054973448960,226
599616054981136128,242
599616054988823296,233
599616054996510336,202
599616055004197504,200
599616055011884672,214
599616055019571712,209
599616055027258880,233
599616055034945920,320
599616055042633088,412
599616055050320256,433
599616055058007296,412
599616055065694464,367
599616055073381632,270
599616055081068672,240
599616055088755840,480
599616055096443008,857
599616055104130048,836
599616055111817216,214
599616055119504256,-372
599616055127191424,-362
599616055134878592,-108
599616055142565632,63
599616055150252741,252
599616055157940224,334
599616055165627648,261
599616055173315072,233
599616055181002368,249
599616055188689792,233
599616055196377216,221
599616055204064640,200
599616055211752064,136
599616055219439488,63
599616055227126784,-23
599616055234814208,-103
599616055242501632,-146
599616055250189056,-153
599616055257876480,-127
599616055265563776,-82
599616055273251200,-42
599616055280938624,11
599616055288626048,61
599616055296313472,89
599616055304000896,117
599616055311688192,150
599616055319375616,162
599616055327063040,153
599616055334750464,131
599616055342437888,98
599616055350125184,32
599616055357812608,-56
599616055365500032,-141
599616055373187456,-209
599616055380874880,-245
599616055388562304,-266
599616055396249600,-332
599616055403937024,-440
599616055411624448,-506
599616055419311872,-499
599616055426999296,-492
599616055434686592,-508
599616055442374016,-473
599616055450061440,-400
599616055457748864,-355
599616055465436288,-294
599616055473123712,-167
599616055480811008,25
599616055488498432,332
599616055496185856,723
599616055503873280,1156
599616055511560704,1781
599616055519248000,2813
599616055526935424,3548
599616055534622848,25
599616055542310272,-6224
599616055549997696,-2641
599616055557685120,7600
599616055565372416,8500
599616055573059840,4610
599616055580747264,6137
599616055588434688,10592
599616055596122112,13136
599616055603809408,13315
599616055611496832,13775
599616055619184256,14672
599616055626871680,14698
599616055634559104,14599
599616055642246400,14868
599616055649933824,15210
599616055657621248,15455
599616055665308672,15240
599616055672996096,14830
599616055680683520,15264
599616055688370816,16543
599616055696058240,16816
599616055703745664,16166
599616055711432986,16465
599616055719120640,16802
599616055726808320,16027
599616055734496000,15923
599616055742183680,17240
599616055749871360,17467
599616055757559040,17071
599616055765246720,18388
599616055772934400,18739
599616055780622080,17106
599616055788309760,16234
599616055795997440,16595
599616055803685120,17083
599616055811372800,16548
599616055819060480,15820
599616055826748160,16034
599616055834435840,16086
599616055842123520,15480
599616055849811200,14543
599616055857498880,13655
599616055865186560,13181
599616055872874240,12642
599616055880561920,11866
599616055888249600,11659
599616055895937280,12121
599616055903624960,12201
599616055911312640,12043
599616055919000320,12236
599616055926688000,12109
599616055934375680,10731
599616055942063360,7286
599616055949751040,3844
599616055957438720,4653
599616055965126400,7786
599616055972814080,8066
599616055980501760,7140
599616055988189440,7894
599616055995877120,8198
599616056003564800,6749
599616056011252480,4832
599616056018940160,2195
599616056026627840,-1331
599616056034315520,-3774
599616056042003200,-4971
599616056049690880,-6622
599616056057378560,-8801
599616056065066240,-10634
599616056072753920,-11921
599616056080441600,-12811
599616056088129280,-13259
599616056095816960,-13337
599616056103504640,-13315
599616056111192320,-13200
599616056118880000,-12924
599616056126567680,-12665
599616056134255360,-12538
599616056141943040,-12526
599616056149630720,-12540
599616056157318400,-12531
599616056165006080,-12689
599616056172693760,-12931
599616056180381440,-12868
599616056188069120,-12616
599616056195756800,-12446
599616056203444480,-12206
599616056211132160,-11878
599616056218819840,-11593
599616056226507520,-11294
599616056234195200,-10999
599616056241882880,-10764
599616056249570560,-10502
599616056257258240,-10234
599616056264945920,-10001
599616056272633571,-9720
599616056280320768,-9416
599616056288007936,-9150
599616056295694976,-8881
599616056303382144,-8606
599616056311069312,-8300
599616056318756352,-7892
599616056326443520,-7567
599616056334130560,-7367
599616056341817728,-7039
599616056349504896,-6662
599616056357191936,-6474
599616056364879104,-6502
599616056372566272,-6566
599616056380253312,-6490
599616056387940480,-6323
599616056395627648,-6182
599616056403314688,-6094
599616056411001856,-6017
599616056418689024,-5986
599616056426376064,-5948
599616056434063232,-5795
599616056441750272,-5654
599616056449437440,-5578
599616056457124608,-5449
599616056464811648,-5319
599616056472498816,-5216
599616056480185984,-5074
599616056487873024,-4949
599616056495560192,-4857
599616056503247360,-4735
599616056510934400,-4622
599616056518621568,-4528
599616056526308608,-4419
599616056533995776,-4323
599616056541682944,-4243
599616056549369984,-4144
599616056557057152,-4054
599616056564744320,-3965
599616056572431360,-3859
599616056580118528,-3769
599616056587805696,-3689
599616056595492736,-3597
599616056603179904,-3500
599616056610867072,-3383
599616056618554112,-3270
599616056626241280,-3201
599616056633928320,-3138
599616056641615488,-3079
599616056649302656,-3046
599616056656989696,-2984
599616056664676864,-2895
599616056672364032,-2834
599616056680051072,-2780
599616056687738240,-2706
599616056695425408,-2643
599616056703112448,-2579
599616056710799616,-2513
599616056718486656,-2511
599616056726173824,-2593
599616056733860992,-2579
599616056741548032,-2221
599616056749235200,-1632
599616056756922368,-1415
599616056764609408,-1960
599616056772296576,-2648
599616056779983744,-2681
599616056787670784,-2381
599616056795357952,-2202
599616056803044992,-1976
599616056810732160,-1797
599616056818419328,-1814
599616056826106368,-1814
599616056833793468,-1733
599616056841480576,-1696
599616056849167744,-1679
599616056856854912,-1642
599616056864542208,-1618
599616056872229376,-1616
599616056879916544,-1604
599616056887603712,-1573
599616056895290880,-1519
599616056902978048,-1467
599616056910665344,-1434
599616056918352512,-1397
599616056926039680,-1342
599616056933726848,-1291
599616056941414016,-1253
599616056949101312,-1218
599616056956788480,-1185
599616056964475648,-1159
599616056972162816,-1133
599616056979849984,-1112
599616056987537280,-1104
599616056995224448,-1104
599616057002911616,-1114
599616057010598784,-1130
599616057018285952,-1144
599616057025973120,-1161
599616057033660416,-1177
599616057041347584,-1180
599616057049034752,-1175
599616057056721920,-1163
599616057064409088,-1135
599616057072096384,-1109
599616057079783552,-1090
599616057087470720,-1071
599616057095157888,-1060
599616057102845056,-1041
599616057110532224,-1013
599616057118219520,-991
599616057125906688,-975
599616057133593856,-961
599616057141281024,-951
599616057148968192,-935
599616057156655488,-909
599616057164342656,-890
599616057172029824,-881
599616057179716992,-874
599616057187404160,-874
599616057195091328,-862
599616057202778624,-843
599616057210465792,-836
599616057218152960,-836
599616057225840128,-829
599616057233527296,-829
599616057241214592,-819
599616057248901760,-801
599616057256588928,-793
599616057264276096,-786
599616057271963264,-779
599616057279650560,-779
599616057287337728,-770
599616057295024896,-749
599616057302712064,-739
599616057310399232,-735
599616057318086400,-735
599616057325773696,-739
599616057333460864,-735
599616057341148032,-718
599616057348835200,-687
599616057356522368,-645
599616057364209664,-633
599616057371896832,-640
599616057379584000,-631
599616057387271168,-657
599616057394958456,-704
599616057402645888,-692
599616057410333312,-671
599616057418020864,-678
599616057425708288,-664
599616057433395712,-643
599616057441083264,-640
599616057448770688,-633
599616057456458240,-636
599616057464145664,-706
599616057471833088,-829
599616057479520640,-801
599616057487208064,-412
599616057494895488,143
599616057502583040,200
599616057510270464,-497
599616057517957888,-1130
599616057525645440,-1083
599616057533332864,-826
599616057541020416,-680
599616057548707840,-530
599616057556395264,-480
599616057564082816,-520
599616057571770240,-499
599616057579457664,-461
599616057587145216,-468
599616057594832640,-473
599616057602520064,-464
599616057610207616,-454
599616057617895040,-442
599616057625582464,-431
599616057633270016,-426
599616057640957440,-424
599616057648644992,-412
599616057656332416,-388
599616057664019840,-369
599616057671707392,-355
599616057679394816,-341
599616057687082240,-334
599616057694769792,-327
599616057702457216,-310
599616057710144640,-306
599616057717832192,-313
599616057725519616,-325
599616057733207168,-346
599616057740894592,-367
599616057748582016,-391
599616057756269568,-421
599616057763956992,-461
599616057771644416,-506
599616057779331968,-539
599616057787019392,-551
599616057794706816,-556
599616057802394368,-556
599616057810081792,-556
599616057817769344,-556
599616057825456768,-556
599616057833144192,-551
599616057840831744,-539
599616057848519168,-525
599616057856206592,-520
599616057863894144,-518
599616057871581568,-513
599616057879268992,-506
599616057886956544,-497
599616057894643968,-501
599616057902331392,-513
599616057910018944,-504
599616057917706368,-485
599616057925393920,-480
599616057933081344,-473
599616057940768768,-459
599616057948456320,-459
599616057956143784,-461
599616057963830912,-454
599616057971518080,-449
599616057979205120,-449
599616057986892288,-442
599616057994579456,-442
599616058002266496,-447
599616058009953664,-447
599616058017640704,-445
599616058025327872,-442
599616058033015040,-442
599616058040702080,-461
599616058048389248,-487
599616058056076416,-475
599616058063763456,-454
599616058071450624,-449
599616058079137792,-447
599616058086824832,-461
599616058094512000,-475
599616058102199168,-468
599616058109886208,-461
599616058117573376,-466
599616058125260416,-459
599616058132947584,-433
599616058140634752,-395
599616058148321792,-379
599616058156008960,-372
599616058163696128,-365
599616058171383168,-386
599616058179070336,-424
599616058186757504,-424
599616058194444544,-409
599616058202131712,-409
599616058209818752,-409
599616058217505920,-402
599616058225193088,-402
599616058232880128,-400
599616058240567296,-414
599616058248254464,-506
599616058255941504,-645
599616058263628672,-567
599616058271315840,-82
599616058279002880,506
599616058286690048,487
599616058294377216,-296
599616058302064256,-937
599616058309751424,-871
599616058317438464,-629
599616058325125632,-485
599616058332812800,-339
599616058340499840,-313
599616058348187008,-355
599616058355874176,-332
599616058363561216,-308
599616058371248384,-318
599616058378935552,-315
599616058386622592,-303
599616058394309760,-313
599616058401996800,-332
599616058409683968,-325
599616058417371136,-299
599616058425058176,-292
599616058432745344,-287
599616058440432512,-268
599616058448119552,-254
599616058455806720,-245
599616058463493888,-226
599616058471180928,-212
599616058478868096,-207
599616058486555136,-202
599616058494242304,-202
599616058501929472,-209
599616058509616512,-221
599616058517303681,-237
599616058524990848,-263
599616058532678016,-292
599616058540365056,-327
599616058548052224,-365
599616058555739392,-400
599616058563426432,-431
599616058571113600,-459
599616058578800640,-482
599616058586487808,-499
599616058594174976,-497
599616058601862016,-482
599616058609549184,-478
599616058617236352,-478
599616058624923392,-471
599616058632610560,-464
599616058640297728,-452
599616058647984768,-440
599616058655671936,-438
599616058663359104,-435
599616058671046144,-426
599616058678733312,-417
599616058686420352,-409
599616058694107520,-402
599616058701794688,-402
599616058709481728,-402
599616058717168896,-398
599616058724856064,-393
599616058732543104,-391
599616058740230272,-388
599616058747917440,-391
599616058755604480,-398
599616058763291648,-400
599616058770978688,-400
599616058778665856,-398
599616058786353024,-393
599616058794040064,-398
599616058801727232,-402
599616058809414400,-402
599616058817101440,-402
599616058824788608,-398
599616058832475776,-393
599616058840162816,-395
599616058847849984,-402
599616058855537152,-402
599616058863224192,-398
599616058870911360,-395
599616058878598400,-393
599616058886285568,-395
599616058893972736,-402
599616058901659776,-417
599616058909346944,-435
599616058917034112,-435
599616058924721152,-424
599616058932408320,-426
599616058940095488,-402
599616058947782528,-367
599616058955469696,-360
599616058963156736,-358
599616058970843904,-358
599616058978531072,-393
599616058986218112,-428
599616058993905280,-426
599616059001592448,-412
599616059009279488,-414
599616059016966656,-414
599616059024653824,-414
599616059032340864,-421
599616059040028032,-426
599616059047715072,-447
599616059055402240,-556
599616059063089408,-662
599616059070776448,-478
599616059078463578,58
599616059086150784,475
599616059093837952,150
599616059101524992,-690
599616059109212160,-1053
599616059116899328,-838
599616059124586368,-678
599616059132273536,-539
599616059139960576,-343
599616059147647744,-336
599616059155334912,-391
599616059163021952,-353
599616059170709120,-341
599616059178396288,-358
599616059186083328,-341
599616059193770496,-327
599616059201457664,-329
599616059209144704,-329
599616059216831872,-325
599616059224519040,-315
599616059232206080,-303
599616059239893248,-292
599616059247580288,-280
599616059255267456,-270
599616059262954624,-261
599616059270641664,-245
599616059278328832,-230
599616059286016000,-221
599616059293703040,-219
599616059301390208,-228
599616059309077376,-247
599616059316764416,-259
599616059324451584,-273
599616059332138624,-301
599616059339825792,-334
599616059347512960,-374
599616059355200000,-421
599616059362887168,-457
599616059370574336,-480
599616059378261376,-494
599616059385948544,-511
599616059393635712,-527
599616059401322752,-537
599616059409009920,-541
599616059416697088,-551
599616059424384128,-544
599616059432071296,-525
599616059439758336,-523
599616059447445504,-518
599616059455132672,-499
599616059462819712,-490
599616059470506880,-485
599616059478194048,-473
599616059485881088,-471
599616059493568256,-471
599616059501255424,-459
599616059508942464,-445
599616059516629632,-440
599616059524316672,-442
599616059532003840,-447
599616059539691008,-449
599616059547378048,-440
599616059555065216,-435
599616059562752384,-440
599616059570439424,-442
599616059578126592,-447
599616059585813760,-447
599616059593500800,-445
599616059601187968,-442
599616059608875008,-440
599616059616562176,-445
599616059624249344,-449
599616059631936384,-447
599616059639623475,-440
599616059647310592,-440
599616059654997760,-438
599616059662684800,-438
599616059670371968,-442
599616059678059136,-447
599616059685746176,-447
599616059693433344,-447
599616059701120384,-449
599616059708807552,-431
599616059716494720,-395
599616059724181760,-384
599616059731868928,-386
599616059739556096,-381
599616059747243136,-400
599616059754930304,-435
599616059762617472,-442
599616059770304512,-431
599616059777991680,-428
599616059785678848,-428
599616059793365888,-435
599616059801053056,-447
599616059808740096,-447
599616059816427264,-447
599616059824114432,-515
599616059831801472,-652
599616059839488640,-633
599616059847175808,-235
599616059854862848,320
599616059862550016,372
599616059870237184,-327
599616059877924224,-970
599616059885611392,-930
599616059893298432,-687
599616059900985600,-556
599616059908672768,-386
599616059916359808,-325
599616059924046976,-398
599616059931734144,-393
599616059939421184,-346
599616059947108352,-355
599616059954795520,-360
599616059962482560,-336
599616059970169728,-329
599616059977856896,-334
599616059985543936,-325
599616059993231104,-315
599616060000918144,-306
599616060008605312,-294
599616060016292480,-280
599616060023979520,-270
599616060031666688,-263
599616060039353856,-249
599616060047040896,-237
599616060054728064,-228
599616060062415232,-221
599616060070102272,-226
599616060077789440,-235
599616060085476480,-247
599616060093163648,-266
599616060100850816,-287
599616060108537856,-315
599616060116225024,-353
599616060123912192,-388
599616060131599232,-424
599616060139286400,-459
599616060146973568,-475
599616060154660608,-482
599616060162347776,-492
599616060170034816,-490
599616060177721984,-485
599616060185409152,-485
599616060193096192,-480
599616060200783372,-471
599616060208470528,-468
599616060216157696,-464
599616060223844864,-454
599616060231532160,-449
599616060239219328,-442
599616060246906496,-447
599616060254593664,-454
599616060262280832,-438
599616060269968000,-424
599616060277655296,-421
599616060285342464,-414
599616060293029632,-409
599616060300716800,-407
599616060308403968,-402
599616060316091264,-400
599616060323778432,-402
599616060331465600,-400
599616060339152768,-402
599616060346839936,-405
599616060354527232,-400
599616060362214400,-400
599616060369901568,-405
599616060377588736,-402
599616060385275904,-400
599616060392963072,-405
599616060400650368,-402
599616060408337536,-395
599616060416024704,-398
599616060423711872,-402
599616060431399040,-417
599616060439086336,-419
599616060446773504,-407
599616060454460672,-402
599616060462147840,-405
599616060469835008,-405
599616060477522176,-402
599616060485209472,-398
599616060492896640,-393
599616060500583808,-395
599616060508270976,-398
599616060515958144,-402
599616060523645440,-409
599616060531332608,-409
599616060539019776,-407
599616060546706944,-381
599616060554394112,-343
599616060562081280,-334
599616060569768576,-336
599616060577455744,-329
599616060585142912,-351
599616060592830080,-391
599616060600517248,-400
599616060608204544,-391
599616060615891712,-391
599616060623578880,-388
599616060631266048,-381
599616060638953216,-381
599616060646640512,-388
599616060654327680,-414
599616060662014848,-518
599616060669702016,-647
599616060677389184,-520
599616060685076352,28
599616060692763648,607
599616060700450816,504
599616060708137984,-329
599616060715825152,-923
599616060723512320,-817
599616060731199616,-588
599616060738886784,-466
599616060746573952,-346
599616060754261120,-329
599616060761948360,-362
599616060769635584,-339
599616060777322752,-318
599616060785009920,-327
599616060792697216,-327
599616060800384384,-310
599616060808071552,-303
599616060815758720,-301
599616060823445888,-294
599616060831133056,-301
599616060838820352,-308
599616060846507520,-289
599616060854194688,-263
599616060861881856,-254
599616060869569024,-245
599616060877256320,-237
599616060884943488,-228
599616060892630656,-212
599616060900317824,-202
599616060908004992,-209
599616060915692160,-216
599616060923379456,-235
599616060931066624,-268
599616060938753792,-301
599616060946440960,-318
599616060954128128,-339
599616060961815424,-381
599616060969502592,-428
599616060977189760,-449
599616060984876928,-459
599616060992564096,-471
599616061000251392,-473
599616061007938560,-475
599616061015625728,-487
599616061023312896,-482
599616061031000064,-466
599616061038687232,-459
599616061046374528,-454
599616061054061696,-452
599616061061748864,-454
599616061069436032,-445
599616061077123200,-428
599616061084810496,-421
599616061092497664,-414
599616061100184832,-412
599616061107872000,-414
599616061115559168,-405
599616061123246336,-391
599616061130933632,-386
599616061138620800,-386
599616061146307968,-388
599616061153995136,-398
599616061161682304,-395
599616061169369600,-386
599616061177056768,-384
599616061184743936,-391
599616061192431104,-398
599616061200118272,-400
599616061207805440,-398
599616061215492736,-393
599616061223179904,-391
599616061230867072,-393
599616061238554240,-400
599616061246241408,-405
599616061253928704,-398
599616061261615872,-393
599616061269303040,-393
599616061276990208,-395
599616061284677376,-400
599616061292364672,-405
599616061300051840,-400
599616061307739008,-393
599616061315426176,-393
599616061323113344,-393
599616061330800512,-395
599616061338487680,-400
599616061346174848,-395
599616061353862144,-391
599616061361549312,-395
599616061369236480,-402
599616061376923648,-417
599616061384610816,-426
599616061392297984,-402
599616061399985280,-360
599616061407672448,-346
599616061415359616,-360
599616061423046784,-374
599616061430733952,-402
599616061438421248,-442
599616061446108416,-445
599616061453795584,-421
599616061461482752,-419
599616061469169920,-424
599616061476857088,-412
599616061484544384,-402
599616061492231552,-391
599616061499918720,-395
599616061507605888,-473
599616061515293056,-612
599616061522980352,-579
599616061530667520,-141
599616061538354688,473
599616061546041856,567
599616061553729024,-157
599616061561416320,-888
599616061569103488,-874
599616061576790656,-603
599616061584477824,-471
599616061592164992,-303
599616061599852160,-214
599616061607539456,-268
599616061615226624,-270
599616061622913792,-223
599616061630600960,-216
599616061638288128,-209
599616061645975424,-197
599616061653662592,-197
599616061661349760,-195
599616061669036928,-183
599616061676724096,-188
599616061684411264,-195
599616061692098560,-164
599616061699785728,-131
599616061707472896,-134
599616061715160064,-131
599616061722847232,-106
599616061730534528,-84
599616061738221696,-73
599616061745908864,-65
599616061753596032,-65
599616061761283200,-65
599616061768970368,-70
599616061776657664,-84
599616061784344832,-108
599616061792032000,-139
599616061799719168,-171
599616061807406336,-204
599616061815093632,-240
599616061822780800,-285
599616061830467968,-296
599616061838155136,-282
599616061845842304,-294
599616061853529600,-313
599616061861216768,-315
599616061868903936,-313
599616061876591104,-285
599616061884278328,-247
599616061891965184,-249
599616061899652096,-235
599616061907339008,-186
599616061915025920,-157
599616061922712832,-190
599616061930399744,-245
599616061938086656,-195
599616061945773568,-70
599616061953460480,-49
599616061961147392,-49
599616061968834304,44
599616061976521216,91
599616061984208128,82
599616061991895040,101
599616061999581952,131
599616062007268864,176
599616062014955776,150
599616062022642688,65
599616062030329600,131
599616062038016512,266
599616062045703424,329
599616062053390336,419
599616062061077248,537
599616062068764160,612
599616062076451072,614
599616062084137984,523
599616062091824896,449
599616062099511808,428
599616062107198720,367
599616062114885632,310
599616062122572544,398
599616062130259456,515
599616062137946368,513
599616062145633280,534
599616062153320192,586
599616062161007104,466
599616062168694016,376
599616062176380928,572
599616062184067840,704
599616062191754752,584
599616062199441664,551
599616062207128576,579
599616062214815488,513
599616062222502400,482
599616062230189312,504
599616062237876224,520
599616062245563136,478
599616062253250048,487
599616062260936960,548
599616062268623872,506
599616062276310784,485
599616062283997696,494
599616062291684608,433
599616062299371520,471
599616062307058432,478
599616062314745344,285
599616062322432256,200
599616062330119168,374
599616062337806080,727
599616062345492992,1095
599616062353179904,961
599616062360866816,268
599616062368553728,-193
599616062376240640,-174
599616062383927552,-91
599616062391614464,-7
599616062399301376,89
599616062406988288,68
599616062414675200,-23
599616062422362112,-68
599616062430049024,-75
599616062437735936,-186
599616062445422964,-292
599616062453110144,-245
599616062460797312,-289
599616062468484352,-442
599616062476171520,-511
599616062483858688,-607
599616062491545728,-619
599616062499232896,-494
599616062506919936,-574
599616062514607104,-739
599616062522294272,-720
599616062529981312,-723
599616062537668480,-815
599616062545355648,-796
599616062553042688,-709
599616062560729856,-770
599616062568417024,-888
599616062576104064,-975
599616062583791232,-1036
599616062591478400,-935
599616062599165440,-841
599616062606852608,-980
599616062614539648,-1107
599616062622226816,-1104
599616062629913984,-1140
599616062637601024,-1185
599616062645288192,-1187
599616062652975360,-1189
599616062660662400,-1149
599616062668349568,-1097
599616062676036736,-1126
599616062683723776,-1161
599616062691410944,-1156
599616062699097984,-1135
599616062706785152,-1086
599616062714472320,-1060
599616062722159360,-1071
599616062729846528,-1086
599616062737533696,-1064
599616062745220736,-991
599616062752907904,-961
599616062760595072,-991
599616062768282112,-991
599616062775969280,-963
599616062783656448,-944
599616062791343488,-935
599616062799030656,-921
599616062806717696,-911
599616062814404864,-907
599616062822092032,-899
599616062829779072,-888
599616062837466240,-881
599616062845153408,-871
599616062852840448,-864
599616062860527616,-866
599616062868214784,-862
599616062875901824,-845
599616062883588992,-829
599616062891276032,-822
599616062898963200,-819
599616062906650368,-815
599616062914337408,-801
599616062922024576,-784
599616062929711744,-772
599616062937398784,-770
599616062945085952,-772
599616062952773120,-772
599616062960460160,-744
599616062968147328,-706
599616062975834368,-695
599616062983521536,-690
599616062991208704,-702
599616062998895744,-730
599616063006582861,-723
599616063014270080,-695
599616063021957248,-690
599616063029644288,-692
599616063037331456,-685
599616063045018624,-676
599616063052705664,-664
599616063060392832,-652
599616063068079872,-687
599616063075767040,-793
599616063083454208,-848
599616063091141248,-593
599616063098828416,-87
599616063106515584,113
599616063114202624,-367
599616063121889792,-996
599616063129576960,-1071
599616063137264000,-817
599616063144951168,-652
599616063152638336,-525
599616063160325376,-445
599616063168012544,-461
599616063175699584,-461
599616063183386752,-424
599616063191073920,-407
599616063198760960,-395
599616063206448128,-372
599616063214135296,-351
599616063221822336,-358
599616063229509504,-362
599616063237196672,-346
599616063244883712,-327
599616063252570880,-303
599616063260257920,-266
599616063267945088,-275
599616063275632256,-327
599616063283319296,-327
599616063291006464,-294
599616063298693632,-294
599616063306380672,-292
599616063314067840,-275
599616063321755008,-263
599616063329442048,-263
599616063337129216,-275
599616063344816384,-275
599616063352503424,-270
599616063360190592,-303
599616063367877632,-358
599616063375564800,-409
599616063383251968,-473
599616063390939008,-511
599616063398626176,-513
599616063406313344,-523
599616063414000384,-532
599616063421687552,-490
599616063429374720,-414
599616063437061760,-393
599616063444748928,-419
599616063452435968,-431
599616063460123136,-459
599616063467810304,-482
599616063475497344,-482
599616063483184512,-518
599616063490871680,-541
599616063498558720,-515
599616063506245888,-515
599616063513933056,-537
599616063521620096,-530
599616063529307264,-520
599616063536994304,-539
599616063544681472,-558
599616063552368640,-541
599616063560055680,-539
599616063567742758,-600
599616063575429888,-624
599616063583117056,-556
599616063590804096,-558
599616063598491264,-645
599616063606178432,-629
599616063613865472,-532
599616063621552640,-551
599616063629239680,-720
599616063636926848,-852
599616063644614016,-735
599616063652301056,-518
599616063659988224,-511
599616063667675392,-591
599616063675362432,-581
599616063683049600,-596
599616063690736768,-629
599616063698423808,-600
599616063706110976,-584
599616063713798144,-645
599616063721485184,-626
599616063729172352,-518
599616063736859392,-563
599616063744546560,-612
599616063752233728,-490
599616063759920768,-504
599616063767607936,-610
599616063775295104,-523
599616063782982144,-454
599616063790669312,-499
599616063798356480,-457
599616063806043520,-506
599616063813730688,-666
599616063821417728,-624
599616063829104896,-480
599616063836792064,-494
599616063844479104,-527
599616063852166272,-447
599616063859853440,-482
599616063867540480,-647
599616063875227648,-753
599616063882914816,-697
599616063890601856,-412
599616063898289024,47
599616063905976192,306
599616063913663232,-157
599616063921350400,-855
599616063929037440,-855
599616063936724608,-563
599616063944411776,-518
599616063952098816,-457
599616063959785984,-365
599616063967473152,-379
599616063975160192,-329
599616063982847360,-153
599616063990534528,-82
599616063998221568,-108
599616064005908736,-21
599616064013595776,63
599616064021282944,2
599616064028970112,-63
599616064036657152,-56
599616064044344320,-70
599616064052031488,-98
599616064059718528,-89
599616064067405696,-68
599616064075092864,-98
599616064082779904,-171
599616064090467072,-174
599616064098154240,-139
599616064105841280,-179
599616064113528448,-240
599616064121215488,-268
599616064128902659,-303
599616064136589824,-353
599616064144276992,-409
599616064151964032,-490
599616064159651200,-563
599616064167338368,-626
599616064175025408,-702
599616064182712576,-763
599616064190399616,-791
599616064198086784,-824
599616064205773952,-864
599616064213460992,-871
599616064221148160,-857
599616064228835328,-852
599616064236522368,-852
599616064244209536,-845
599616064251896704,-843
599616064259583744,-836
599616064267270912,-808
599616064274958080,-779
599616064282645120,-770
599616064290332288,-758
599616064298019328,-735
599616064305706496,-706
599616064313393664,-680
599616064321080704,-657
599616064328767872,-638
599616064336455040,-619
599616064344142080,-598
599616064351829248,-574
599616064359516416,-551
599616064367203456,-537
599616064374890624,-525
599616064382577664,-520
599616064390264832,-527
599616064397952000,-530
599616064405639040,-520
599616064413326208,-515
599616064421013376,-515
599616064428700416,-511
599616064436387584,-497
599616064444074752,-480
599616064451761792,-471
599616064459448960,-468
599616064467136128,-475
599616064474823168,-480
599616064482510336,-459
599616064490197376,-433
599616064497884544,-421
599616064505571712,-405
599616064513258752,-374
599616064520945920,-339
599616064528633088,-313
599616064536320128,-287
599616064544007296,-270
599616064551694464,-285
599616064559381504,-301
599616064567068672,-289
599616064574755712,-268
599616064582442880,-252
599616064590130048,-235
599616064597817088,-223
599616064605504256,-216
599616064613191424,-207
599616064620878464,-193
599616064628565632,-221
599616064636252800,-332
599616064643939840,-393
599616064651627008,-136
599616064659314048,379
599616064667001216,572
599616064674688384,32
599616064682375424,-659
599616064690062556,-746
599616064697749760,-497
599616064705436928,-346
599616064713123968,-209
599616064720811136,-131
599616064728498304,-160
599616064736185344,-160
599616064743872512,-139
599616064751559552,-143
599616064759246720,-134
599616064766933888,-115
599616064774620928,-120
599616064782308096,-129
599616064789995264,-139
599616064797682304,-153
599616064805369472,-160
599616064813056640,-160
599616064820743680,-153
599616064828430848,-150
599616064836118016,-143
599616064843805056,-120
599616064851492224,-96
599616064859179264,-73
599616064866866432,-56
599616064874553600,-49
599616064882240640,-51
599616064889927808,-63
599616064897614976,-82
599616064905302016,-106
599616064912989184,-148
599616064920676352,-207
599616064928363392,-273
599616064936050560,-343
599616064943737600,-414
599616064951424768,-525
599616064959111936,-629
599616064966798976,-617
599616064974486144,-579
599616064982173312,-624
599616064989860352,-709
599616064997547520,-784
599616065005234688,-763
599616065012921728,-678
599616065020608896,-711
599616065028296064,-798
599616065035983104,-796
599616065043670272,-791
599616065051357312,-789
599616065059044480,-699
599616065066731648,-647
599616065074418688,-744
599616065082105856,-796
599616065089793024,-678
599616065097480064,-636
599616065105167232,-746
599616065112854400,-751
599616065120541440,-600
599616065128228608,-544
599616065135915648,-605
599616065143602816,-617
599616065151289984,-581
599616065158977024,-579
599616065166664192,-617
599616065174351360,-643
599616065182038400,-662
599616065189725568,-652
599616065197412736,-556
599616065205099776,-473
599616065212786944,-515
599616065220473984,-558
599616065228161152,-478
599616065235848320,-494
599616065243535360,-629
599616065251222453,-586
599616065258909056,-492
599616065266595712,-506
599616065274282496,-532
599616065281969152,-461
599616065289655808,-369
599616065297342592,-421
599616065305029248,-475
599616065312716032,-461
599616065320402688,-504
599616065328089344,-412
599616065335776128,-263
599616065343462784,-374
599616065351149440,-379
599616065358836224,-157
599616065366522880,-157
599616065374209664,-252
599616065381896320,-122
599616065389582976,0
599616065397269760,-47
599616065404956416,-14
599616065412643072,96
599616065420329856,124
599616065428016512,216
599616065435703296,400
599616065443389952,532
599616065451076608,579
599616065458763392,610
599616065466450048,654
599616065474136704,544
599616065481823488,327
599616065489510144,329
599616065497196928,695
599616065504883584,1236
599616065512570240,1382
599616065520257024,598
599616065527943680,-384
599616065535630336,-532
599616065543317120,-310
599616065551003776,-329
599616065558690560,-322
599616065566377216,-296
599616065574063872,-426
599616065581750656,-527
599616065589437312,-534
599616065597123968,-548
599616065604810752,-619
599616065612497408,-713
599616065620184192,-770
599616065627870848,-784
599616065635557504,-808
599616065643244288,-850
599616065650930944,-883
599616065658617600,-892
599616065666304384,-888
599616065673991040,-871
599616065681677824,-834
599616065689364480,-826
599616065697051136,-838
599616065704737920,-798
599616065712424576,-756
599616065720111232,-751
599616065727798016,-730
599616065735484672,-692
599616065743171456,-685
599616065750858112,-673
599616065758544768,-643
599616065766231552,-643
599616065773918208,-640
599616065781604864,-636
599616065789291648,-687
599616065796978304,-760
599616065804665088,-779
599616065812351832,-739
599616065820039040,-654
599616065827726208,-558
599616065835413248,-523
599616065843100416,-532
599616065850787584,-520
599616065858474624,-499
599616065866161792,-508
599616065873848832,-548
599616065881536000,-544
599616065889223168,-452
599616065896910208,-332
599616065904597376,-266
599616065912284544,-263
599616065919971584,-266
599616065927658752,-254
599616065935345920,-249
599616065943032960,-252
599616065950720128,-245
599616065958407296,-261
599616065966094336,-310
599616065973781504,-334
599616065981468544,-322
599616065989155712,-325
599616065996842880,-332
599616066004529920,-310
599616066012217088,-275
599616066019904256,-240
599616066027591296,80
599616066035278464,1708
599616066042965632,4516
599616066050652672,5706
599616066058339840,3939
599616066066026880,3776
599616066073714048,7192
599616066081401216,8314
599616066089088256,6313
599616066096775424,4330
599616066104462592,2172
599616066112149632,372
599616066119836800,-645
599616066127523968,-852
599616066135211008,-640
599616066142898176,-730
599616066150585344,-624
599616066158272384,-360
599616066165959552,-459
599616066173646592,-610
599616066181333760,-464
599616066189020928,-313
599616066196707968,-365
599616066204395136,-447
599616066212082304,-464
599616066219769344,-513
599616066227456512,-796
599616066235143680,-1062
599616066242830720,-1041
599616066250517888,-937
599616066258204928,-544
599616066265892096,204
599616066273579264,603
599616066281266304,237
599616066288953472,-520
599616066296640640,-907
599616066304327680,-699
599616066312014848,-329
599616066319702016,-82
599616066327389056,-108
599616066335076224,207
599616066342763264,1604
599616066350450432,2499
599616066358137600,662
599616066365824640,-1571
599616066373511729,-607
599616066381198848,1154
599616066388886016,1189
599616066396573056,1352
599616066404260224,2301
599616066411947392,2992
599616066419634432,3319
599616066427321600,3319
599616066435008640,3180
599616066442695808,3244
599616066450382976,3508
599616066458070016,3654
599616066465757184,3267
599616066473444352,2313
599616066481131392,1517
599616066488818560,2292
599616066496505728,3498
599616066504192768,2711
599616066511879936,393
599616066519567104,-1818
599616066527254144,-2238
599616066534941312,-419
599616066542628352,1399
599616066550315520,1609
599616066558002688,1364
599616066565689728,1569
599616066573376896,1427
599616066581064064,956
599616066588751104,475
599616066596438272,-527
599616066604125440,-1027
599616066611812480,-30
599616066619499648,902
599616066627186688,956
599616066634873856,1050
599616066642561024,1281
599616066650248064,1408
599616066657935232,1696
599616066665622400,1795
599616066673309440,1481
599616066680996608,1055
599616066688683776,-87
599616066696370816,-1637
599616066704057984,-1425
599616066711745152,44
599616066719432192,-325
599616066727119360,-998
599616066734806400,252
599616066742493568,-98
599616066750180736,-3402
599616066757867776,-5819
599616066765554944,-5437
599616066773242112,-4565
599616066780929152,-4638
599616066788616320,-4481
599616066796303488,-4005
599616066803990528,-3842
599616066811677696,-3750
599616066819364736,-3552
599616066827051904,-3366
599616066834739072,-3194
599616066842426112,-3060
599616066850113280,-2992
599616066857800448,-2914
599616066865487488,-2777
599616066873174656,-2666
599616066880861824,-2636
599616066888548864,-2572
599616066896236032,-2403
599616066903923072,-2259
599616066911610240,-2228
599616066919297408,-2169
599616066926984448,-2063
599616066934671626,-2073
599616066942358784,-2059
599616066950045952,-1898
599616066957732992,-1828
599616066965420160,-1832
599616066973107328,-1724
599616066980794368,-1616
599616066988481536,-1635
599616066996168576,-1653
599616067003855744,-1590
599616067011542912,-1540
599616067019229952,-1540
599616067026917120,-1564
599616067034604288,-1514
599616067042291328,-1432
599616067049978496,-1446
599616067057665664,-1338
599616067065352704,-1239
599616067073039872,-1446
599616067080727040,-1571
599616067088414080,-1234
599616067096101248,-605
599616067103788288,-110
599616067111475456,-414
599616067119162624,-1413
599616067126849664,-1785
599616067134536832,-1413
599616067142224000,-1302
599616067149911040,-1243
599616067157598208,-909
599616067165285376,-784
599616067172972416,-897
599616067180659584,-914
599616067188346624,-907
599616067196033792,-923
599616067203720960,-843
599616067211408000,-812
599616067219095168,-892
599616067226782336,-822
599616067234469376,-683
599616067242156544,-727
599616067249843712,-777
599616067257530752,-709
599616067265217920,-702
599616067272905088,-756
599616067280592128,-732
599616067288279296,-659
599616067295966336,-624
599616067303653504,-631
599616067311340672,-659
599616067319027712,-666
599616067326714880,-664
599616067334402048,-690
599616067342089088,-709
599616067349776256,-725
599616067357463424,-770
599616067365150464,-815
599616067372837632,-848
599616067380524672,-904
599616067388211840,-949
599616067395899008,-947
599616067403586048,-951
599616067411273216,-977
599616067418960384,-975
599616067426647424,-947
599616067434334592,-935
599616067442021760,-937
599616067449708800,-928
599616067457395968,-911
599616067465083136,-907
599616067472770176,-892
599616067480457344,-855
599616067488144384,-824
599616067495831527,-815
599616067503518720,-808
599616067511205888,-805
599616067518892928,-782
599616067526580096,-744
599616067534267264,-725
599616067541954304,-718
599616067549641472,-702
599616067557328512,-678
599616067565015680,-669
599616067572702848,-662
599616067580389888,-657
599616067588077056,-662
599616067595764224,-657
599616067603451264,-636
599616067611138432,-626
599616067618825600,-619
599616067626512640,-605
599616067634199808,-598
599616067641886976,-591
599616067649574016,-588
599616067657261184,-586
599616067664948224,-572
599616067672635392,-567
599616067680322560,-577
599616067688009600,-572
599616067695696768,-556
599616067703383936,-532
599616067711070976,-490
599616067718758144,-471
599616067726445312,-471
599616067734132352,-466
599616067741819520,-485
599616067749506560,-504
599616067757193728,-494
599616067764880896,-478
599616067772567936,-480
599616067780255104,-471
599616067787942272,-457
599616067795629312,-464
599616067803316480,-459
599616067811003648,-445
599616067818690688,-513
599616067826377856,-636
599616067834065024,-551
599616067841752064,-108
599616067849439232,374
599616067857126272,266
599616067864813440,-473
599616067872500608,-965
599616067880187648,-812
599616067887874816,-584
599616067895561984,-480
599616067903249024,-341
599616067910936192,-299
599616067918623360,-346
599616067926310400,-334
599616067933997568,-303
599616067941684608,-306
599616067949371776,-308
599616067957058944,-292
599616067964745984,-285
599616067972433152,-273
599616067980120320,-254
599616067987807360,-226
599616067995494528,-200
599616068003181696,-214
599616068010868736,-235
599616068018555904,-223
599616068026242944,-214
599616068033930112,-228
599616068041617280,-221
599616068049304320,-183
599616068056991424,-136
599616068064678656,96
599616068072365824,713
599616068080052864,970
599616068087740032,240
599616068095427200,-325
599616068103114240,-157
599616068110801408,-23
599616068118488448,285
599616068126175616,904
599616068133862784,1123
599616068141549824,1079
599616068149236992,852
599616068156924160,103
599616068164611200,-520
599616068172298368,-617
599616068179985536,-678
599616068187672576,-819
599616068195359744,-841
599616068203046912,-791
599616068210733952,-793
599616068218421120,-815
599616068226108160,-777
599616068233795328,-730
599616068241482496,-711
599616068249169536,-695
599616068256856704,-669
599616068264543872,-645
599616068272230912,-612
599616068279918080,-588
599616068287605248,-572
599616068295292288,-556
599616068302979456,-546
599616068310666496,-537
599616068318353664,-520
599616068326040832,-501
599616068333727872,-490
599616068341415040,-487
599616068349102208,-490
599616068356789248,-473
599616068364476416,-459
599616068372163584,-459
599616068379850624,-454
599616068387537792,-452
599616068395224960,-452
599616068402912000,-438
599616068410599168,-412
599616068418286208,-393
599616068425973376,-367
599616068433660544,-339
599616068441347584,-329
599616068449034752,-315
599616068456721920,-230
599616068464408960,-61
599616068472096128,136
599616068479783296,280
599616068487470336,327
599616068495157504,393
599616068502844544,473
599616068510531712,417
599616068518218880,303
599616068525905920,221
599616068533593088,49
599616068541280256,-171
599616068548967296,-287
599616068556654464,-372
599616068564341632,-449
599616068572028672,-475
599616068579715840,-508
599616068587402880,-539
599616068595090048,-532
599616068602777216,-534
599616068610464256,-574
599616068618151321,-796
599616068625838464,-1022
599616068633525632,-626
599616068641212672,42
599616068648899840,-136
599616068656587008,-1013
599616068664274048,-1420
599616068671961216,-1170
599616068679648256,-925
599616068687335424,-793
599616068695022592,-659
599616068702709632,-645
599616068710396800,-713
599616068718083968,-702
599616068725771008,-640
599616068733458176,-607
599616068741145344,-579
599616068748832384,-593
599616068756519552,-605
599616068764206720,-532
599616068771893760,-520
599616068779580928,-574
599616068787267968,-513
599616068794955136,-428
599616068802642304,-461
599616068810329344,-497
599616068818016512,-449
599616068825703680,-419
599616068833390720,-445
599616068841077888,-440
599616068848765056,-381
599616068856452096,-365
599616068864139264,-417
599616068871826304,-438
599616068879513472,-409
599616068887200640,-421
599616068894887680,-487
599616068902574848,-525
599616068910262016,-544
599616068917949056,-584
599616068925636224,-633
599616068933323392,-662
599616068941010432,-652
599616068948697600,-645
599616068956384768,-647
599616068964071808,-626
599616068971758976,-636
599616068979446016,-669
599616068987133184,-643
599616068994820352,-605
599616069002507392,-607
599616069010194560,-614
599616069017881728,-633
599616069025568768,-643
599616069033255936,-621
599616069040943104,-598
599616069048630144,-581
599616069056317312,-570
599616069064004352,-591
599616069071691520,-600
599616069079378688,-537
599616069087065728,-499
599616069094752896,-537
599616069102440064,-548
599616069110127104,-532
599616069117814272,-546
599616069125501440,-563
599616069133188480,-548
599616069140875648,-534
599616069148562688,-530
599616069156249856,-523
599616069163937024,-527
599616069171624064,-532
599616069179311218,-530
599616069186997888,-525
599616069194684544,-520
599616069202371328,-513
599616069210057984,-511
599616069217744640,-508
599616069225431424,-499
599616069233118080,-490
599616069240804864,-494
599616069248491520,-508
599616069256178176,-513
599616069263864960,-504
599616069271551616,-499
599616069279238272,-499
599616069286925056,-482
599616069294611712,-454
599616069302298496,-431
599616069309985152,-426
599616069317671808,-426
599616069325358592,-431
599616069333045248,-452
599616069340731904,-468
599616069348418688,-461
599616069356105344,-454
599616069363792128,-454
599616069371478784,-449
599616069379165440,-445
599616069386852224,-445
599616069394538880,-442
599616069402225536,-480
599616069409912320,-605
599616069417598976,-654
599616069425285760,-348
599616069432972416,228
599616069440659072,473
599616069448345856,-80
599616069456032512,-850
599616069463719168,-942
599616069471405952,-664
599616069479092608,-551
599616069486779392,-409
599616069494466048,-273
599616069502152704,-303
599616069509839488,-329
599616069517526144,-292
599616069525212800,-294
599616069532899584,-301
599616069540586240,-280
599616069548273024,-275
599616069555959680,-275
599616069563646336,-266
599616069571333120,-261
599616069579019776,-254
599616069586706432,-240
599616069594393216,-230
599616069602079872,-226
599616069609766656,-212
599616069617453312,-197
599616069625139968,-186
599616069632826752,-174
599616069640513408,-169
599616069648200064,-169
599616069655886848,-176
599616069663573504,-186
599616069671260288,-202
599616069678946944,-235
599616069686633600,-263
599616069694320384,-289
599616069702007040,-332
599616069709693696,-367
599616069717380480,-393
599616069725067136,-412
599616069732753920,-426
599616069740440597,-438
599616069748127744,-442
599616069755814912,-438
599616069763501952,-431
599616069771189120,-431
599616069778876288,-435
599616069786563328,-442
599616069794250496,-442
599616069801937536,-431
599616069809624704,-419
599616069817311872,-417
599616069824998912,-409
599616069832686080,-405
599616069840373248,-400
599616069848060288,-386
599616069855747456,-374
599616069863434624,-372
599616069871121664,-372
599616069878808832,-369
599616069886496000,-362
599616069894183040,-358
599616069901870208,-358
599616069909557248,-360
599616069917244416,-362
599616069924931584,-365
599616069932618624,-362
599616069940305792,-362
599616069947992960,-365
599616069955680000,-360
599616069963367168,-362
599616069971054336,-369
599616069978741376,-369
599616069986428544,-365
599616069994115584,-360
599616070001802752,-365
599616070009489920,-367
599616070017176960,-372
599616070024864128,-386
599616070032551296,-386
599616070040238336,-372
599616070047925504,-374
599616070055612672,-386
599616070063299712,-386
599616070070986880,-384
599616070078674048,-386
599616070086361088,-374
599616070094048256,-341
599616070101735296,-329
599616070109422464,-332
599616070117109632,-320
599616070124796672,-329
599616070132483840,-365
599616070140171008,-386
599616070147858048,-384
599616070155545216,-379
599616070163232384,-384
599616070170919424,-402
599616070178606592,-433
599616070186293632,-442
599616070193980800,-409
599616070201667968,-407
599616070209355008,-523
599616070217042176,-581
599616070224729344,-256
599616070232416384,306
599616070240103552,523
599616070247790720,14
599616070255477760,-730
599616070263164928,-892
599616070270852096,-629
599616070278539136,-454
599616070286226304,-367
599616070293913344,-332
599616070301600496,-376
599616070309287680,-327
599616070316974848,-240
599616070324661888,-296
599616070332349056,-334
599616070340036224,-278
599616070347723264,-273
599616070355410432,-273
599616070363097472,-252
599616070370784640,-306
599616070378471808,-315
599616070386158848,-221
599616070393846016,-214
599616070401533184,-263
599616070409220224,-235
599616070416907392,-226
599616070424594560,-275
599616070432281600,-268
599616070439968768,-216
599616070447655936,-212
599616070455342976,-245
599616070463030144,-242
599616070470717184,-237
599616070478404352,-263
599616070486091520,-282
599616070493778560,-336
599616070501465728,-412
599616070509152896,-421
599616070516839936,-414
599616070524527104,-480
599616070532214272,-579
599616070539901312,-598
599616070547588480,-534
599616070555275520,-480
599616070562962688,-454
599616070570649856,-461
599616070578336896,-499
599616070586024064,-480
599616070593711232,-457
599616070601398272,-560
599616070609085440,-603
599616070616772608,-426
599616070624459648,-343
599616070632146816,-452
599616070639833984,-471
599616070647521024,-414
599616070655208192,-454
599616070662895232,-506
599616070670582400,-454
599616070678269568,-386
599616070685956608,-419
599616070693643776,-457
599616070701330944,-388
599616070709017984,-372
599616070716705152,-424
599616070724392320,-386
599616070732079360,-353
599616070739766528,-405
599616070747453568,-461
599616070755140736,-464
599616070762827904,-386
599616070770514944,-341
599616070778202112,-384
599616070785889280,-409
599616070793576320,-398
599616070801263488,-386
599616070808950656,-391
599616070816637696,-412
599616070824324864,-414
599616070832012032,-391
599616070839699072,-386
599616070847386240,-398
599616070855073280,-388
599616070862760395,-374
599616070870447232,-384
599616070878134016,-398
599616070885820928,-391
599616070893507712,-376
599616070901194624,-374
599616070908881408,-379
599616070916568320,-384
599616070924255104,-376
599616070931942016,-343
599616070939628800,-318
599616070947315712,-320
599616070955002496,-332
599616070962689408,-355
599616070970376192,-379
599616070978062976,-379
599616070985749888,-367
599616070993436672,-360
599616071001123584,-360
599616071008810368,-358
599616071016497280,-351
599616071024184064,-355
599616071031870976,-369
599616071039557760,-405
599616071047244672,-513
599616071054931456,-556
599616071062618368,-249
599616071070305152,301
599616071077991936,478
599616071085678848,-136
599616071093365632,-902
599616071101052544,-930
599616071108739328,-612
599616071116426240,-497
599616071124113024,-341
599616071131799936,-186
599616071139486720,-226
599616071147173632,-254
599616071154860416,-212
599616071162547328,-209
599616071170234112,-223
599616071177920896,-207
599616071185607808,-202
599616071193294592,-209
599616071200981504,-204
599616071208668288,-193
599616071216355200,-181
599616071224041984,-179
599616071231728896,-174
599616071239415680,-157
599616071247102592,-146
599616071254789376,-141
599616071262476288,-127
599616071270163072,-115
599616071277849984,-113
599616071285536768,-110
599616071293223552,-115
599616071300910464,-134
599616071308597248,-150
599616071316284160,-169
599616071323970944,-200
599616071331657856,-230
599616071339344640,-268
599616071347031552,-310
599616071354718336,-336
599616071362405248,-355
599616071370092032,-376
599616071377778944,-384
599616071385465728,-386
599616071393152512,-388
599616071400839424,-386
599616071408526208,-386
599616071416213120,-388
599616071423899948,-376
599616071431586944,-365
599616071439273984,-367
599616071446960896,-360
599616071454647936,-351
599616071462334848,-351
599616071470021888,-341
599616071477708800,-334
599616071485395840,-334
599616071493082752,-329
599616071500769792,-322
599616071508456832,-318
599616071516143744,-310
599616071523830784,-310
599616071531517696,-334
599616071539204736,-360
599616071546891648,-355
599616071554578688,-325
599616071562265600,-318
599616071569952640,-334
599616071577639552,-341
599616071585326592,-334
599616071593013632,-325
599616071600700544,-332
599616071608387584,-341
599616071616074496,-332
599616071623761536,-320
599616071631448448,-327
599616071639135488,-332
599616071646822400,-325
599616071654509440,-318
599616071662196480,-325
599616071669883392,-336
599616071677570432,-332
599616071685257344,-315
599616071692944384,-318
599616071700631296,-334
599616071708318336,-341
599616071716005248,-329
599616071723692288,-320
599616071731379200,-315
599616071739066240,-315
599616071746753280,-318
599616071754440192,-327
599616071762127232,-327
599616071769814144,-299
599616071777501184,-275
599616071785188096,-278
599616071792875136,-270
599616071800562048,-270
599616071808249088,-318
599616071815936128,-348
599616071823623040,-327
599616071831310080,-322
599616071838996992,-343
599616071846684032,-329
599616071854370944,-325
599616071862057984,-332
599616071869744896,-313
599616071877431936,-339
599616071885118848,-480
599616071892805888,-588
599616071900492928,-365
599616071908179840,204
599616071915866880,591
599616071923553792,214
599616071931240832,-596
599616071938927744,-911
599616071946614784,-680
599616071954301696,-440
599616071961988736,-299
599616071969675776,-273
599616071977362688,-343
599616071985049671,-315
599616071992736896,-266
599616072000424064,-320
599616072008111104,-313
599616072015798272,-216
599616072023485440,-219
599616072031172480,-301
599616072038859648,-278
599616072046546688,-190
599616072054233856,-204
599616072061921024,-306
599616072069608064,-303
599616072077295232,-181
599616072084982400,-195
599616072092669440,-329
599616072100356608,-256
599616072108043776,-87
599616072115730816,-146
599616072123417984,-245
599616072131105152,-162
599616072138792192,-127
599616072146479360,-237
599616072154166400,-254
599616072161853568,-193
599616072169540736,-285
599616072177227776,-442
599616072184914944,-449
599616072192602112,-405
599616072200289152,-435
599616072207976320,-447
599616072215663488,-417
599616072223350528,-421
599616072231037696,-424
599616072238724736,-433
599616072246411904,-475
599616072254099072,-461
599616072261786112,-424
599616072269473280,-454
599616072277160448,-473
599616072284847488,-445
599616072292534656,-449
599616072300221824,-435
599616072307908864,-381
599616072315596032,-393
599616072323283200,-433
599616072330970240,-407
599616072338657408,-393
599616072346344448,-417
599616072354031616,-407
599616072361718784,-381
599616072369405824,-384
599616072377092992,-391
599616072384780160,-381
599616072392467200,-381
599616072400154368,-391
599616072407841536,-384
599616072415528576,-374
599616072423215744,-369
599616072430902784,-367
599616072438589952,-372
599616072446277120,-374
599616072453964160,-372
599616072461651328,-367
599616072469338496,-362
599616072477025536,-355
599616072484712704,-360
599616072492399872,-367
599616072500086912,-360
599616072507774080,-348
599616072515461120,-343
599616072523148288,-339
599616072530835456,-334
599616072538522496,-336
599616072546209568,-346
599616072553896576,-355
599616072561583616,-346
599616072569270656,-329
599616072576957696,-334
599616072584644736,-343
599616072592331776,-325
599616072600018944,-285
599616072607705984,-261
599616072615393024,-268
599616072623080064,-280
599616072630767104,-296
599616072638454144,-318
599616072646141184,-320
599616072653828224,-313
599616072661515264,-315
599616072669202304,-308
599616072676889472,-299
599616072684576512,-299
599616072692263552,-292
599616072699950592,-289
599616072707637632,-334
599616072715324672,-457
599616072723011712,-506
599616072730698752,-204
599616072738385792,365
599616072746072832,574
599616072753759872,-42
599616072761447040,-845
599616072769134080,-918
599616072776821120,-617
599616072784508160,-485
599616072792195200,-306
599616072799882240,-143
599616072807569280,-193
599616072815256320,-228
599616072822943360,-181
599616072830630400,-176
599616072838317568,-193
599616072846004608,-179
599616072853691648,-174
599616072861378688,-179
599616072869065728,-174
599616072876752768,-162
599616072884439808,-155
599616072892126848,-153
599616072899813888,-146
599616072907500928,-136
599616072915187968,-124
599616072922875136,-110
599616072930562176,-96
599616072938249216,-89
599616072945936256,-87
599616072953623296,-84
599616072961310336,-89
599616072968997376,-103
599616072976684416,-122
599616072984371456,-155
599616072992058496,-190
599616072999745664,-226
599616073007432704,-261
599616073015119744,-289
599616073022806784,-334
599616073030493824,-391
599616073038180864,-398
599616073045867904,-388
599616073053554944,-414
599616073061241984,-433
599616073068929024,-447
599616073076616192,-464
599616073084303232,-442
599616073091990272,-431
599616073099677312,-421
599616073107364382,-376
599616073115051136,-367
599616073122737920,-381
599616073130424704,-388
599616073138111488,-391
599616073145798272,-341
599616073153485056,-315
599616073161171840,-376
599616073168858496,-402
599616073176545280,-376
599616073184232064,-384
599616073191918848,-353
599616073199605632,-299
599616073207292416,-308
599616073214979200,-348
599616073222665984,-376
599616073230352768,-365
599616073238039552,-327
599616073245726336,-358
599616073253413120,-395
599616073261099776,-339
599616073268786560,-308
599616073276473344,-360
599616073284160128,-384
599616073291846912,-372
599616073299533696,-379
599616073307220480,-381
599616073314907264,-379
599616073322594048,-400
599616073330280832,-409
599616073337967616,-379
599616073345654400,-358
599616073353341056,-369
599616073361027840,-367
599616073368714624,-362
599616073376401408,-386
599616073384088192,-398
599616073391774976,-381
599616073399461760,-367
599616073407148544,-376
599616073414835328,-379
599616073422522112,-369
599616073430208896,-372
599616073437895680,-384
599616073445582336,-376
599616073453269120,-339
599616073460955904,-306
599616073468642688,-306
599616073476329472,-310
599616073484016256,-306
599616073491703040,-327
599616073499389824,-360
599616073507076608,-362
599616073514763392,-353
599616073522450176,-353
599616073530136960,-351
599616073537823616,-339
599616073545510400,-334
599616073553197184,-343
599616073560883968,-379
599616073568570752,-475
599616073576257536,-605
599616073583944320,-501
599616073591631104,35
599616073599317888,671
599616073607004672,640
599616073614691456,-228
599616073622378240,-928
599616073630064896,-834
599616073637751680,-556
599616073645438464,-407
599616073653125248,-266
599616073660812032,-245
599616073668498844,-289
599616073676185984,-259
599616073683873152,-228
599616073691560192,-242
599616073699247360,-242
599616073706934528,-228
599616073714621568,-221
599616073722308736,-216
599616073729995776,-202
599616073737682944,-193
599616073745370112,-195
599616073753057152,-195
599616073760744320,-179
599616073768431488,-153
599616073776118528,-141
599616073783805696,-131
599616073791492864,-120
599616073799179904,-108
599616073806867072,-96
599616073814554240,-87
599616073822241280,-89
599616073829928448,-103
599616073837615488,-127
599616073845302656,-155
599616073852989824,-179
599616073860676864,-209
599616073868364032,-252
599616073876051200,-299
599616073883738240,-351
599616073891425408,-381
599616073899112576,-393
599616073906799616,-402
599616073914486784,-409
599616073922173824,-409
599616073929860992,-409
599616073937548160,-402
599616073945235200,-391
599616073952922368,-381
599616073960609536,-376
599616073968296576,-376
599616073975983744,-376
599616073983670912,-367
599616073991357952,-355
599616073999045120,-351
599616074006732288,-343
599616074014419328,-341
599616074022106496,-339
599616074029793536,-332
599616074037480704,-325
599616074045167872,-318
599616074052854912,-320
599616074060542080,-336
599616074068229248,-353
599616074075916288,-346
599616074083603456,-332
599616074091290624,-334
599616074098977664,-334
599616074106664832,-339
599616074114351872,-346
599616074122039040,-339
599616074129726208,-332
599616074137413248,-334
599616074145100416,-336
599616074152787584,-334
599616074160474624,-334
599616074168161792,-332
599616074175848960,-325
599616074183536000,-322
599616074191223168,-327
599616074198910336,-329
599616074206597376,-332
599616074214284544,-336
599616074221971584,-339
599616074229658745,-327
599616074237345920,-325
599616074245033088,-346
599616074252720128,-358
599616074260407296,-336
599616074268094464,-320
599616074275781504,-348
599616074283468672,-341
599616074291155712,-263
599616074298842880,-266
599616074306530048,-318
599616074314217088,-282
599616074321904256,-263
599616074329591424,-325
599616074337278464,-341
599616074344965632,-341
599616074352652800,-395
599616074360339840,-379
599616074368027008,-292
599616074375714176,-310
599616074383401216,-362
599616074391088384,-372
599616074398775424,-471
599616074406462592,-588
599616074414149760,-468
599616074421836800,18
599616074429523968,591
599616074437211136,513
599616074444898176,-327
599616074452585344,-921
599616074460272512,-817
599616074467959552,-607
599616074475646720,-466
599616074483333760,-296
599616074491020928,-282
599616074498708096,-341
599616074506395136,-308
599616074514082304,-308
599616074521769472,-362
599616074529456512,-336
599616074537143680,-299
599616074544830848,-320
599616074552517888,-303
599616074560205056,-285
599616074567892224,-315
599616074575579264,-329
599616074583266432,-318
599616074590953472,-249
599616074598640640,-188
599616074606327808,-247
599616074614014848,-322
599616074621702016,-282
599616074629389184,-190
599616074637076224,-202
599616074644763392,-242
599616074652450560,-167
599616074660137600,-148
599616074667824768,-261
599616074675511808,-325
599616074683198976,-301
599616074690886144,-306
599616074698573184,-400
599616074706260352,-487
599616074713947520,-457
599616074721634560,-400
599616074729321728,-452
599616074737008896,-530
599616074744695936,-497
599616074752383104,-464
599616074760070144,-515
599616074767757312,-525
599616074775444480,-485
599616074783131520,-501
599616074790818642,-501
599616074798505600,-428
599616074806192512,-407
599616074813879424,-452
599616074821566336,-468
599616074829253248,-459
599616074836940160,-452
599616074844627072,-419
599616074852313984,-388
599616074860000896,-395
599616074867687808,-409
599616074875374720,-414
599616074883061632,-407
599616074890748544,-395
599616074898435456,-388
599616074906122368,-381
599616074913809280,-376
599616074921496192,-379
599616074929183104,-372
599616074936870016,-365
599616074944556928,-362
599616074952243840,-351
599616074959930752,-346
599616074967617664,-351
599616074975304576,-346
599616074982991488,-334
599616074990678400,-334
599616074998365312,-336
599616075006052224,-332
599616075013739136,-320
599616075021426048,-315
599616075029112960,-315
599616075036799872,-313
599616075044486784,-306
599616075052173696,-299
599616075059860608,-299
599616075067547520,-306
599616075075234432,-310
599616075082921344,-301
599616075090608256,-292
599616075098295168,-292
599616075105982080,-296
599616075113668992,-287
599616075121355904,-254
599616075129042816,-216
599616075136729728,-214
599616075144416640,-219
599616075152103552,-219
599616075159790464,-242
599616075167477376,-280
599616075175164288,-287
599616075182851200,-275
599616075190538112,-278
599616075198225024,-278
599616075205911936,-270
599616075213598848,-273
599616075221285760,-268
599616075228972672,-275
599616075236659584,-379
599616075244346496,-537
599616075252033408,-464
599616075259720320,56
599616075267407232,749
599616075275094144,876
599616075282781056,82
599616075290467968,-765
599616075298154880,-805
599616075305841792,-523
599616075313528704,-391
599616075321215616,-266
599616075328902528,-207
599616075336589440,-249
599616075344276352,-240
599616075351963282,-204
599616075359650432,-214
599616075367337600,-219
599616075375024768,-204
599616075382712064,-200
599616075390399232,-195
599616075398086400,-188
599616075405773568,-186
599616075413460736,-186
599616075421147904,-183
599616075428835200,-169
599616075436522368,-146
599616075444209536,-129
599616075451896704,-122
599616075459583872,-108
599616075467271168,-91
599616075474958336,-80
599616075482645504,-75
599616075490332672,-75
599616075498019840,-89
599616075505707008,-106
599616075513394304,-124
599616075521081472,-153
599616075528768640,-188
599616075536455808,-240
599616075544142976,-299
599616075551830272,-341
599616075559517440,-365
599616075567204608,-398
599616075574891776,-424
599616075582578944,-419
599616075590266240,-414
599616075597953408,-417
599616075605640576,-402
599616075613327744,-388
599616075621014912,-384
599616075628702080,-379
599616075636389376,-376
599616075644076544,-369
599616075651763712,-360
599616075659450880,-346
599616075667138048,-336
599616075674825344,-334
599616075682512512,-334
599616075690199680,-325
599616075697886848,-310
599616075705574016,-303
599616075713261184,-301
599616075720948480,-299
599616075728635648,-301
599616075736322816,-301
599616075744009984,-294
599616075751697152,-294
599616075759384448,-299
599616075767071616,-301
599616075774758784,-308
599616075782445952,-306
599616075790133120,-301
599616075797820288,-306
599616075805507584,-308
599616075813194752,-299
599616075820881920,-299
599616075828569088,-310
599616075836256256,-320
599616075843943552,-315
599616075851630720,-306
599616075859317888,-306
599616075867005056,-315
599616075874692224,-320
599616075882379520,-310
599616075890066688,-301
599616075897753856,-301
599616075905441024,-308
599616075913128266,-315
599616075920815104,-310
599616075928501888,-303
599616075936188800,-313
599616075943875584,-322
599616075951562496,-327
599616075959249280,-358
599616075966936192,-360
599616075974622976,-320
599616075982309888,-299
599616075989996672,-282
599616075997683584,-261
599616076005370368,-285
599616076013057280,-320
599616076020744064,-315
599616076028430848,-325
599616076036117760,-381
599616076043804544,-384
599616076051491456,-273
599616076059178240,-237
599616076066865152,-339
599616076074551936,-358
599616076082238848,-299
599616076089925632,-402
599616076097612544,-636
599616076105299328,-626
599616076112986240,-143
599616076120673024,579
599616076128359808,937
599616076136046720,428
599616076143733504,-475
599616076151420416,-791
599616076159107200,-596
599616076166794112,-457
599616076174480896,-346
599616076182167808,-289
599616076189854592,-341
599616076197541504,-358
599616076205228288,-313
599616076212915200,-294
599616076220601984,-310
599616076228288768,-294
599616076235975680,-249
599616076243662464,-263
599616076251349376,-263
599616076259036160,-214
599616076266723072,-221
599616076274409856,-256
599616076282096768,-259
599616076289783552,-261
599616076297470464,-202
599616076305157248,-131
599616076312844160,-174
599616076320530944,-221
599616076328217728,-207
599616076335904640,-216
599616076343591424,-186
599616076351278336,-129
599616076358965120,-176
599616076366652032,-240
599616076374338816,-242
599616076382025728,-256
599616076389712512,-301
599616076397399424,-360
599616076405086208,-376
599616076412773120,-322
599616076420459904,-313
599616076428146688,-353
599616076435833600,-339
599616076443520384,-334
599616076451207296,-367
599616076458894080,-367
599616076466580992,-353
599616076474267815,-355
599616076481954944,-351
599616076489642112,-339
599616076497329152,-339
599616076505016320,-346
599616076512703488,-339
599616076520390528,-325
599616076528077696,-325
599616076535764736,-332
599616076543451904,-327
599616076551139072,-315
599616076558826112,-313
599616076566513280,-308
599616076574200448,-313
599616076581887488,-336
599616076589574656,-346
599616076597261824,-329
599616076604948864,-325
599616076612636032,-327
599616076620323200,-320
599616076628010240,-318
599616076635697408,-315
599616076643384448,-318
599616076651071616,-329
599616076658758784,-322
599616076666445824,-306
599616076674132992,-306
599616076681820160,-318
599616076689507200,-315
599616076697194368,-313
599616076704881536,-318
599616076712568576,-322
599616076720255744,-318
599616076727942784,-313
599616076735629952,-313
599616076743317120,-318
599616076751004160,-315
599616076758691328,-310
599616076766378496,-315
599616076774065536,-315
599616076781752704,-315
599616076789439872,-320
599616076797126912,-322
599616076804814080,-322
599616076812501248,-332
599616076820188288,-346
599616076827875456,-339
599616076835562496,-301
599616076843249664,-259
599616076850936832,-252
599616076858623872,-259
599616076866311040,-270
599616076873998208,-303
599616076881685248,-322
599616076889372416,-308
599616076897059584,-303
599616076904746624,-310
599616076912433792,-306
599616076920120832,-296
599616076927808000,-296
599616076935495168,-299
599616076943182208,-362
599616076950869376,-523
599616076958556544,-574
599616076966243584,-202
599616076973930752,482
599616076981617920,817
599616076989304960,273
599616076996992128,-577
599616077004679168,-772
599616077012366336,-511
599616077020053504,-334
599616077027740544,-230
599616077035427712,-179
599616077043114880,-188
599616077050802048,-164
599616077058489088,-120
599616077066176256,-101
599616077073863424,-84
599616077081550464,-70
599616077089237632,-65
599616077096924672,-56
599616077104611840,-49
599616077112299008,-51
599616077119986048,-58
599616077127673216,-70
599616077135360384,-65
599616077143047424,-42
599616077150734592,-25
599616077158421760,-18
599616077166108800,-4
599616077173795968,7
599616077181483136,16
599616077189170176,25
599616077196857344,18
599616077204544384,2
599616077212231552,-21
599616077219918720,-44
599616077227605760,-65
599616077235292928,-98
599616077242980096,-150
599616077250667136,-195
599616077258354304,-228
599616077266041472,-254
599616077273728512,-273
599616077281415680,-285
599616077289102720,-301
599616077296789888,-313
599616077304477056,-303
599616077312164096,-287
599616077319851264,-270
599616077327538432,-256
599616077335225472,-235
599616077342912640,-197
599616077350599808,-160
599616077358286848,-129
599616077365974016,-84
599616077373661184,-23
599616077381348224,42
599616077389035392,134
599616077396722432,266
599616077404409600,402
599616077412096768,560
599616077419783808,753
599616077427470976,940
599616077435158144,1112
599616077442845184,1293
599616077450532352,1481
599616077458219520,1651
599616077465906560,1790
599616077473593728,1887
599616077481280768,2004
599616077488967936,2191
599616077496655104,2245
599616077504342144,2134
599616077512029312,2113
599616077519716480,2235
599616077527403520,2327
599616077535090688,2379
599616077542777856,2377
599616077550464896,2252
599616077558152064,2242
599616077565839232,2344
599616077573526272,2193
599616077581213440,1849
599616077588900480,1545
599616077596587613,1507
599616077604274816,1644
599616077611961984,1493
599616077619649024,1218
599616077627336192,1112
599616077635023360,904
599616077642710400,574
599616077650397568,353
599616077658084608,176
599616077665771776,-35
599616077673458944,-223
599616077681145984,-409
599616077688833152,-612
599616077696520320,-779
599616077704207360,-923
599616077711894528,-1088
599616077719581696,-1225
599616077727268736,-1300
599616077734955904,-1347
599616077742643072,-1368
599616077750330112,-1357
599616077758017280,-1338
599616077765704320,-1342
599616077773391488,-1387
599616077781078656,-1465
599616077788765696,-1571
599616077796452864,-1679
599616077804140032,-1748
599616077811827072,-1788
599616077819514240,-1818
599616077827201408,-1830
599616077834888448,-1842
599616077842575616,-1865
599616077850262656,-1870
599616077857949824,-1884
599616077865636992,-1990
599616077873324032,-2094
599616077881011200,-1908
599616077888698368,-1366
599616077896385408,-904
599616077904072576,-1140
599616077911759744,-1962
599616077919446784,-2377
599616077927133952,-2122
599616077934821120,-1849
599616077942508160,-1708
599616077950195328,-1585
599616077957882368,-1564
599616077965569536,-1559
599616077973256704,-1507
599616077980943744,-1479
599616077988630912,-1460
599616077996318080,-1415
599616078004005120,-1382
599616078011692288,-1366
599616078019379456,-1338
599616078027066496,-1309
599616078034753664,-1274
599616078042440704,-1227
599616078050127872,-1189
599616078057815040,-1156
599616078065502080,-1109
599616078073189248,-1064
599616078080876416,-1029
599616078088563456,-998
599616078096250624,-984
599616078103937792,-965
599616078111624832,-928
599616078119312000,-904
599616078126999040,-897
599616078134686208,-883
599616078142373376,-885
599616078150060416,-902
599616078157747510,-911
599616078165434368,-937
599616078173121280,-965
599616078180808192,-973
599616078188495104,-975
599616078196182016,-975
599616078203868928,-954
599616078211555840,-918
599616078219242752,-916
599616078226929664,-928
599616078234616576,-916
599616078242303488,-904
599616078249990400,-904
599616078257677312,-874
599616078265364224,-819
599616078273051136,-798
599616078280738048,-791
599616078288424960,-768
599616078296111872,-739
599616078303798784,-716
599616078311485696,-697
599616078319172608,-678
599616078326859520,-664
599616078334546432,-659
599616078342233344,-640
599616078349920256,-624
599616078357607168,-631
599616078365294080,-633
599616078372980992,-633
599616078380667904,-652
599616078388354816,-657
599616078396041728,-629
599616078403728640,-617
599616078411415552,-640
599616078419102464,-638
599616078426789376,-619
599616078434476288,-652
599616078442163200,-706
599616078449850112,-702
599616078457537024,-669
599616078465223936,-664
599616078472910848,-678
599616078480597760,-690
599616078488284672,-685
599616078495971584,-685
599616078503658496,-713
599616078511345408,-727
599616078519032320,-695
599616078526719232,-697
599616078534406144,-746
599616078542093056,-737
599616078549779968,-713
599616078557466880,-744
599616078565153792,-753
599616078572840704,-727
599616078580527616,-725
599616078588214528,-737
599616078595901440,-753
599616078603588352,-777
599616078611275264,-746
599616078618962176,-662
599616078626649088,-626
599616078634336000,-636
599616078642022912,-626
599616078649709824,-636
599616078657396736,-669
599616078665083648,-654
599616078672770560,-629
599616078680457472,-638
599616078688144384,-640
599616078695831296,-629
599616078703518208,-621
599616078711205120,-624
599616078718892150,-636
599616078726579328,-727
599616078734266496,-857
599616078741953664,-742
599616078749640960,-223
599616078757328128,322
599616078765015296,197
599616078772702464,-614
599616078780389632,-1147
599616078788076800,-989
599616078795764096,-730
599616078803451264,-588
599616078811138432,-478
599616078818825600,-471
599616078826512768,-494
599616078834200064,-475
599616078841887232,-459
599616078849574400,-447
599616078857261568,-428
599616078864948736,-409
599616078872635904,-398
599616078880323200,-391
599616078888010368,-381
599616078895697536,-360
599616078903384704,-346
599616078911071872,-334
599616078918759168,-315
599616078926446336,-299
599616078934133504,-280
599616078941820672,-256
599616078949507840,-247
599616078957195136,-240
599616078964882304,-226
599616078972569472,-219
599616078980256640,-216
599616078987943808,-219
599616078995630976,-235
599616079003318272,-259
599616079011005440,-282
599616079018692608,-313
599616079026379776,-351
599616079034066944,-386
599616079041754240,-421
599616079049441408,-445
599616079057128576,-459
599616079064815744,-466
599616079072502912,-459
599616079080190080,-452
599616079087877376,-454
599616079095564544,-457
599616079103251712,-461
599616079110938880,-473
599616079118626048,-475
599616079126313344,-454
599616079134000512,-442
599616079141687680,-442
599616079149374848,-433
599616079157062016,-424
599616079164749184,-414
599616079172436480,-402
599616079180123648,-391
599616079187810816,-391
599616079195497984,-393
599616079203185152,-386
599616079210872448,-379
599616079218559616,-374
599616079226246784,-367
599616079233933952,-369
599616079241621120,-374
599616079249308416,-369
599616079256995584,-362
599616079264682752,-362
599616079272369920,-372
599616079280057134,-374
599616079287743872,-367
599616079295430656,-374
599616079303117568,-376
599616079310804352,-358
599616079318491264,-351
599616079326178048,-374
599616079333864960,-388
599616079341551744,-391
599616079349238656,-400
599616079356925440,-400
599616079364612352,-402
599616079372299136,-417
599616079379986048,-391
599616079387672832,-336
599616079395359616,-322
599616079403046528,-336
599616079410733312,-355
599616079418420224,-374
599616079426107008,-372
599616079433793920,-400
599616079441480704,-438
599616079449167616,-379
599616079456854400,-299
599616079464541312,-362
599616079472228096,-447
599616079479915008,-362
599616079487601792,-266
599616079495288576,-334
599616079502975488,-414
599616079510662272,-395
599616079518349184,-294
599616079526035968,-207
599616079533722880,-285
599616079541409664,-417
599616079549096576,-442
599616079556783360,-362
599616079564470272,-273
599616079572157056,-325
599616079579843968,-480
599616079587530752,-520
599616079595217536,-212
599616079602904448,395
599616079610591232,673
599616079618278144,7
599616079625964928,-954
599616079633651840,-1046
599616079641338624,-626
599616079649025536,-487
599616079656712320,-409
599616079664399232,-240
599616079672086016,-249
599616079679772928,-391
599616079687459712,-362
599616079695146496,-181
599616079702833408,-174
599616079710520192,-289
599616079718207104,-273
599616079725893888,-226
599616079733580800,-252
599616079741267584,-261
599616079748954496,-228
599616079756641280,-219
599616079764328192,-219
599616079772014976,-202
599616079779701888,-190
599616079787388672,-186
599616079795075456,-171
599616079802762368,-162
599616079810449152,-164
599616079818136064,-155
599616079825822848,-143
599616079833509760,-155
599616079841196683,-181
599616079848883840,-200
599616079856571008,-223
599616079864258048,-261
599616079871945216,-301
599616079879632384,-341
599616079887319424,-376
599616079895006592,-398
599616079902693632,-414
599616079910380800,-440
599616079918067968,-461
599616079925755008,-459
599616079933442176,-447
599616079941129344,-442
599616079948816384,-431
599616079956503552,-426
599616079964190720,-428
599616079971877760,-419
599616079979564928,-405
599616079987252096,-395
599616079994939136,-384
599616080002626304,-376
599616080010313344,-376
599616080018000512,-372
599616080025687680,-362
599616080033374720,-355
599616080041061888,-355
599616080048749056,-353
599616080056436096,-348
599616080064123264,-341
599616080071810432,-339
599616080079497472,-336
599616080087184640,-346
599616080094871680,-388
599616080102558848,-433
599616080110246016,-440
599616080117933056,-447
599616080125620224,-506
599616080133307392,-558
599616080140994432,-551
599616080148681600,-548
599616080156368768,-560
599616080164055808,-551
599616080171742976,-537
599616080179430144,-541
599616080187117184,-544
599616080194804352,-537
599616080202491392,-532
599616080210178560,-527
599616080217865728,-518
599616080225552768,-518
599616080233239936,-523
599616080240927104,-525
599616080248614144,-527
599616080256301312,-523
599616080263988480,-518
599616080271675520,-494
599616080279362688,-459
599616080287049728,-445
599616080294736896,-447
599616080302424064,-440
599616080310111104,-459
599616080317798272,-499
599616080325485440,-504
599616080333172480,-490
599616080340859648,-492
599616080348546816,-492
599616080356233856,-471
599616080363921024,-457
599616080371608064,-464
599616080379295232,-478
599616080386982400,-563
599616080394669440,-723
599616080402356580,-709
599616080410043776,-263
599616080417730944,358
599616080425417984,398
599616080433105152,-374
599616080440792320,-1020
599616080448479360,-923
599616080456166528,-662
599616080463853568,-553
599616080471540736,-447
599616080479227904,-431
599616080486914944,-515
599616080494602112,-574
599616080502289280,-525
599616080509976320,-504
599616080517663488,-530
599616080525350656,-372
599616080533037696,-233
599616080540724864,-303
599616080548412032,-287
599616080556099072,-216
599616080563786240,-263
599616080571473280,-266
599616080579160448,-204
599616080586847616,-237
599616080594534656,-270
599616080602221824,-242
599616080609908992,-216
599616080617596032,-171
599616080625283200,-167
599616080632970368,-219
599616080640657408,-261
599616080648344576,-315
599616080656031616,-346
599616080663718784,-322
599616080671405952,-310
599616080679092992,-315
599616080686780160,-339
599616080694467328,-398
599616080702154368,-449
599616080709841536,-466
599616080717528704,-504
599616080725215744,-567
599616080732902912,-553
599616080740590080,-478
599616080748277120,-454
599616080755964288,-497
599616080763651328,-534
599616080771338496,-525
599616080779025664,-480
599616080786712704,-471
599616080794399872,-494
599616080802087040,-501
599616080809774080,-499
599616080817461248,-501
599616080825148416,-475
599616080832835456,-459
599616080840522624,-478
599616080848209664,-482
599616080855896832,-473
599616080863584000,-466
599616080871271040,-459
599616080878958208,-452
599616080886645376,-452
599616080894332416,-452
599616080902019584,-449
599616080909706752,-447
599616080917393792,-438
599616080925080960,-433
599616080932768128,-435
599616080940455168,-435
599616080948142336,-433
599616080955829376,-428
599616080963516481,-424
599616080971203328,-417
599616080978890112,-414
599616080986577024,-417
599616080994263808,-414
599616081001950720,-409
599616081009637504,-407
599616081017324416,-409
599616081025011200,-414
599616081032698112,-428
599616081040384896,-449
599616081048071808,-452
599616081055758592,-445
599616081063445504,-452
599616081071132288,-447
599616081078819072,-409
599616081086505984,-386
599616081094192768,-381
599616081101879680,-372
599616081109566464,-381
599616081117253376,-419
599616081124940160,-433
599616081132627072,-428
599616081140313856,-438
599616081148000768,-433
599616081155687552,-417
599616081163374464,-414
599616081171061248,-419
599616081178748032,-421
599616081186434944,-466
599616081194121728,-605
599616081201808640,-654
599616081209495424,-318
599616081217182336,332
599616081224869120,664
599616081232556032,108
599616081240242816,-786
599616081247929728,-994
599616081255616512,-716
599616081263303424,-544
599616081270990208,-402
599616081278676992,-310
599616081286363904,-355
599616081294050688,-365
599616081301737600,-329
599616081309424384,-339
599616081317111296,-343
599616081324798080,-320
599616081332484992,-313
599616081340171776,-315
599616081347858688,-310
599616081355545472,-306
599616081363232384,-296
599616081370919168,-278
599616081378606080,-266
599616081386292864,-256
599616081393979648,-245
599616081401666560,-233
599616081409353344,-221
599616081417040256,-204
599616081424727040,-195
599616081432413952,-207
599616081440100736,-226
599616081447787648,-240
599616081455474432,-245
599616081463161344,-263
599616081470848128,-296
599616081478535040,-278
599616081486221824,-280
599616081493908608,-362
599616081501595520,-417
599616081509282304,-428
599616081516969216,-471
599616081524656034,-497
599616081532343040,-471
599616081540030080,-480
599616081547716992,-546
599616081555404032,-537
599616081563090944,-449
599616081570777984,-426
599616081578464896,-468
599616081586151936,-501
599616081593838848,-501
599616081601525888,-419
599616081609212928,-348
599616081616899840,-407
599616081624586880,-435
599616081632273792,-384
599616081639960832,-395
599616081647647744,-431
599616081655334784,-374
599616081663021696,-372
599616081670708736,-482
599616081678395648,-421
599616081686082688,-287
599616081693769728,-358
599616081701456640,-393
599616081709143680,-329
599616081716830592,-424
599616081724517632,-530
599616081732204544,-393
599616081739891584,-280
599616081747578496,-419
599616081755265536,-530
599616081762952576,-442
599616081770639488,-381
599616081778326528,-405
599616081786013440,-334
599616081793700480,-285
599616081801387392,-369
599616081809074432,-421
599616081816761344,-395
599616081824448384,-419
599616081832135296,-494
599616081839822336,-391
599616081847509376,-240
599616081855196288,-365
599616081862883328,-452
599616081870570240,-327
599616081878257280,-369
599616081885944192,-400
599616081893631232,-242
599616081901318144,-320
599616081909005184,-497
599616081916692224,-376
599616081924379136,-247
599616081932066176,-341
599616081939753088,-435
599616081947440128,-452
599616081955127040,-405
599616081962814080,-332
599616081970500992,-412
599616081978188032,-596
599616081985874944,-515
599616081993561984,-37
599616082001249024,558
599616082008935936,768
599616082016622976,68
599616082024309888,-980
599616082031996928,-1114
599616082039683840,-600
599616082047370880,-372
599616082055057792,-376
599616082062744832,-287
599616082070431872,-174
599616082078118784,-219
599616082085805757,-332
599616082093492864,-299
599616082101180032,-195
599616082108867072,-214
599616082116554240,-308
599616082124241408,-303
599616082131928448,-221
599616082139615616,-235
599616082147302656,-252
599616082154989824,-181
599616082162676992,-209
599616082170364032,-301
599616082178051200,-256
599616082185738368,-131
599616082193425408,-87
599616082201112576,-120
599616082208799744,-157
599616082216486784,-169
599616082224173952,-202
599616082231861120,-216
599616082239548160,-150
599616082247235328,-120
599616082254922368,-200
599616082262609536,-270
599616082270296704,-306
599616082277983744,-365
599616082285670912,-405
599616082293358080,-400
599616082301045120,-407
599616082308732288,-431
599616082316419456,-454
599616082324106496,-461
599616082331793664,-457
599616082339480704,-449
599616082347167872,-447
599616082354855040,-431
599616082362542080,-417
599616082370229248,-412
599616082377916416,-398
599616082385603456,-386
599616082393290624,-384
599616082400977792,-365
599616082408664832,-346
599616082416352000,-353
599616082424039168,-355
599616082431726208,-348
599616082439413376,-346
599616082447100416,-343
599616082454787584,-343
599616082462474752,-346
599616082470161792,-346
599616082477848960,-341
599616082485536128,-341
599616082493223168,-336
599616082500910336,-329
599616082508597504,-327
599616082516284544,-327
599616082523971712,-329
599616082531658752,-339
599616082539345920,-341
599616082547033088,-339
599616082554720128,-341
599616082562407296,-351
599616082570094464,-362
599616082577781504,-369
599616082585468672,-369
599616082593155840,-346
599616082600842880,-301
599616082608530048,-280
599616082616217088,-282
599616082623904256,-278
599616082631591424,-287
599616082639278464,-308
599616082646965654,-320
599616082654652672,-329
599616082662339712,-339
599616082670026752,-329
599616082677713792,-315
599616082685400832,-318
599616082693087872,-318
599616082700775040,-329
599616082708462080,-400
599616082716149120,-537
599616082723836160,-556
599616082731523200,-179
599616082739210240,466
599616082746897280,692
599616082754584320,25
599616082762271360,-805
599616082769958400,-890
599616082777645568,-607
599616082785332608,-471
599616082793019648,-329
599616082800706688,-240
599616082808393728,-280
599616082816080768,-282
599616082823767808,-254
599616082831454848,-273
599616082839141888,-285
599616082846828928,-270
599616082854515968,-268
599616082862203136,-280
599616082869890176,-289
599616082877577216,-282
599616082885264256,-266
599616082892951296,-263
599616082900638336,-275
599616082908325376,-263
599616082916012416,-214
599616082923699456,-195
599616082931386496,-219
599616082939073664,-212
599616082946760704,-188
599616082954447744,-183
599616082962134784,-186
599616082969821824,-197
599616082977508864,-219
599616082985195904,-235
599616082992882944,-245
599616083000569984,-270
599616083008257024,-322
599616083015944064,-381
599616083023631232,-414
599616083031318272,-421
599616083039005312,-431
599616083046692352,-440
599616083054379392,-452
599616083062066432,-459
599616083069753472,-449
599616083077440512,-438
599616083085127552,-442
599616083092814592,-447
599616083100501760,-440
599616083108188800,-424
599616083115875840,-419
599616083123562880,-419
599616083131249920,-407
599616083138936960,-393
599616083146624000,-395
599616083154311040,-414
599616083161998080,-426
599616083169685120,-412
599616083177372288,-391
599616083185059328,-388
599616083192746368,-407
599616083200433408,-414
599616083208120468,-381
599616083215807232,-358
599616083223494016,-367
599616083231180800,-360
599616083238867584,-336
599616083246554368,-346
599616083254241152,-367
599616083261927936,-362
599616083269614592,-351
599616083277301376,-351
599616083284988160,-355
599616083292674944,-384
599616083300361728,-379
599616083308048512,-341
599616083315735296,-346
599616083323422080,-381
599616083331108864,-409
599616083338795648,-438
599616083346482432,-452
599616083354169216,-438
599616083361855872,-424
599616083369542656,-419
599616083377229440,-398
599616083384916224,-381
599616083392603008,-376
599616083400289792,-360
599616083407976576,-369
599616083415663360,-421
599616083423350144,-438
599616083431036928,-417
599616083438723712,-431
599616083446410496,-445
599616083454097152,-419
599616083461783936,-428
599616083469470720,-471
599616083477157504,-478
599616083484844288,-539
599616083492531072,-706
599616083500217856,-723
599616083507904640,-332
599616083515591424,294
599616083523278208,527
599616083530964992,-75
599616083538651776,-852
599616083546338432,-973
599616083554025216,-718
599616083561712000,-544
599616083569398784,-447
599616083577085568,-445
599616083584772352,-471
599616083592459136,-431
599616083600145920,-409
599616083607832704,-452
599616083615519488,-461
599616083623206272,-431
599616083630893056,-419
599616083638579712,-412
599616083646266496,-398
599616083653953280,-412
599616083661640064,-442
599616083669326848,-424
599616083677013632,-374
599616083684700416,-351
599616083692387200,-360
599616083700073984,-384
599616083707760768,-372
599616083715447552,-315
599616083723134336,-308
599616083730821120,-343
599616083738507776,-329
599616083746194560,-325
599616083753881344,-346
599616083761568128,-339
599616083769254934,-351
599616083776941568,-407
599616083784628224,-445
599616083792315008,-442
599616083800001664,-459
599616083807688320,-501
599616083815375104,-511
599616083823061760,-504
599616083830748544,-515
599616083838435200,-530
599616083846121856,-523
599616083853808640,-501
599616083861495296,-487
599616083869181952,-508
599616083876868736,-530
599616083884555392,-523
599616083892242176,-492
599616083899928832,-466
599616083907615488,-499
599616083915302272,-532
599616083922988928,-485
599616083930675584,-449
599616083938362368,-473
599616083946049024,-459
599616083953735808,-428
599616083961422464,-445
599616083969109120,-447
599616083976795904,-414
599616083984482560,-407
599616083992169216,-417
599616083999856000,-402
599616084007542656,-393
599616084015229440,-393
599616084022916096,-395
599616084030602752,-395
599616084038289536,-398
599616084045976192,-395
599616084053662848,-384
599616084061349632,-381
599616084069036288,-386
599616084076723072,-386
599616084084409728,-391
599616084092096384,-388
599616084099783168,-372
599616084107469824,-379
599616084115156480,-409
599616084122843264,-414
599616084130529920,-395
599616084138216704,-386
599616084145903360,-365
599616084153590016,-327
599616084161276800,-320
599616084168963456,-320
599616084176650112,-292
599616084184336896,-313
599616084192023552,-369
599616084199710336,-369
599616084207396992,-348
599616084215083648,-351
599616084222770432,-332
599616084230457088,-320
599616084238143744,-341
599616084245830528,-351
599616084253517184,-341
599616084261203968,-393
599616084268890624,-539
599616084276577280,-612
599616084284264064,-299
599616084291950720,393
599616084299637376,841
599616084307324160,386
599616084315010816,-518
599616084322697600,-815
599616084330384313,-574
599616084338071040,-388
599616084345757824,-285
599616084353444736,-235
599616084361131520,-261
599616084368818432,-259
599616084376505216,-240
599616084384192128,-235
599616084391878912,-219
599616084399565824,-204
599616084407252608,-202
599616084414939520,-190
599616084422626304,-186
599616084430313216,-186
599616084438000000,-169
599616084445686784,-160
599616084453373696,-167
599616084461060480,-148
599616084468747392,-120
599616084476434176,-108
599616084484121088,-106
599616084491807872,-98
599616084499494784,-82
599616084507181568,-65
599616084514868480,-73
599616084522555264,-103
599616084530242176,-117
599616084537928960,-115
599616084545615744,-124
599616084553302656,-143
599616084560989440,-162
599616084568676352,-186
599616084576363136,-214
599616084584050048,-233
599616084591736832,-233
599616084599423744,-233
599616084607110528,-245
599616084614797440,-249
599616084622484224,-242
599616084630171136,-249
599616084637857920,-252
599616084645544704,-237
599616084653231616,-235
599616084660918400,-249
599616084668605312,-259
599616084676292096,-268
599616084683979008,-275
599616084691665792,-273
599616084699352704,-266
599616084707039488,-266
599616084714726400,-275
599616084722413184,-289
599616084730100096,-299
599616084737786880,-306
599616084745473792,-320
599616084753160576,-339
599616084760847360,-348
599616084768534272,-365
599616084776221056,-400
599616084783907968,-424
599616084791594752,-435
599616084799281664,-454
599616084806968448,-480
599616084814655360,-508
599616084822342144,-530
599616084830029056,-541
599616084837715840,-560
599616084845402752,-584
599616084853089536,-596
599616084860776320,-607
599616084868463232,-617
599616084876150016,-614
599616084883836928,-617
599616084891523866,-626
599616084899210880,-633
599616084906897920,-638
599616084914584832,-636
599616084922271872,-603
599616084929958784,-577
599616084937645824,-593
599616084945332736,-617
599616084953019776,-654
599616084960706688,-699
599616084968393728,-695
599616084976080768,-657
599616084983767680,-633
599616084991454720,-633
599616084999141632,-631
599616085006828672,-617
599616085014515584,-603
599616085022202624,-607
599616085029889536,-657
599616085037576576,-819
599616085045263488,-956
599616085052950528,228
599616085060637568,4000
599616085068324480,7437
599616085076011520,6950
599616085083698432,5008
599616085091385472,4504
599616085099072384,4064
599616085106759424,3199
599616085114446336,3060
599616085122133376,3225
599616085129820416,2944
599616085137507328,2412
599616085145194368,1943
599616085152881280,426
599616085160568320,-2805
599616085168255232,-3670
599616085175942272,-188
599616085183629184,2235
599616085191316224,1309
599616085199003136,683
599616085206690176,-157
599616085214377216,-2956
599616085222064128,-4009
599616085229751168,-2643
599616085237438080,-2384
599616085245125120,-2794
599616085252812032,-2358
599616085260499072,-2077
599616085268185984,-2219
599616085275873024,-2068
599616085283560064,-1816
599616085291246976,-1797
599616085298934016,-1766
599616085306620928,-1653
599616085314307968,-1620
599616085321994880,-1597
599616085329681920,-1519
599616085337368832,-1493
599616085345055872,-1484
599616085352742784,-1418
599616085360429824,-1378
599616085368116864,-1366
599616085375803776,-1307
599616085383490816,-1241
599616085391177728,-1210
599616085398864768,-1187
599616085406551680,-1175
599616085414238720,-1177
599616085421925632,-1149
599616085429612672,-1090
599616085437299712,-1036
599616085444986624,-1001
599616085452673589,-977
599616085460360704,-944
599616085468047872,-892
599616085475734912,-855
599616085483422080,-836
599616085491109248,-793
599616085498796288,-739
599616085506483456,-713
599616085514170496,-704
599616085521857664,-671
599616085529544832,-610
599616085537231872,-598
599616085544919040,-605
599616085552606208,-553
599616085560293248,-520
599616085567980416,-523
599616085575667584,-492
599616085583354624,-457
599616085591041792,-454
599616085598728960,-445
599616085606416000,-409
599616085614103168,-388
599616085621790208,-386
599616085629477376,-362
599616085637164544,-320
599616085644851584,-282
599616085652538752,-252
599616085660225920,-242
599616085667912960,-247
599616085675600128,-228
599616085683287296,-193
599616085690974336,-115
599616085698661504,-42
599616085706348544,-18
599616085714035712,-9
599616085721722880,-16
599616085729409920,-49
599616085737097088,-58
599616085744784256,-18
599616085752471296,18
599616085760158464,9
599616085767845632,-2
599616085775532672,14
599616085783219840,11
599616085790907008,0
599616085798594048,-49
599616085806281216,-207
599616085813968256,-237
599616085821655424,214
599616085829342592,932
599616085837029632,1154
599616085844716800,490
599616085852403968,-303
599616085860091008,-327
599616085867778176,14
599616085875465344,174
599616085883152384,325
599616085890839552,431
599616085898526592,398
599616085906213760,391
599616085913900928,424
599616085921587968,386
599616085929275136,322
599616085936962304,346
599616085944649344,393
599616085952336512,353
599616085960023680,289
599616085967710720,280
599616085975397888,278
599616085983084928,261
599616085990772096,256
599616085998459264,245
599616086006146304,202
599616086013833486,197
599616086021520640,252
599616086029207808,212
599616086036894848,117
599616086044582016,160
599616086052269184,171
599616086059956224,61
599616086067643392,82
599616086075330432,115
599616086083017600,0
599616086090704768,-47
599616086098391808,-35
599616086106078976,-94
599616086113766144,-136
599616086121453184,-146
599616086129140352,-169
599616086136827520,-174
599616086144514560,-188
599616086152201728,-226
599616086159888896,-160
599616086167575936,-37
599616086175263104,-63
599616086182950144,-143
599616086190637312,-115
599616086198324480,-77
599616086206011520,-106
599616086213698688,-134
599616086221385856,-106
599616086229072896,-61
599616086236760064,-94
599616086244447232,-131
599616086252134272,-117
599616086259821440,-129
599616086267508480,-157
599616086275195648,-162
599616086282882816,-169
599616086290569856,-174
599616086298257024,-167
599616086305944192,-179
599616086313631232,-204
599616086321318400,-202
599616086329005568,-204
599616086336692608,-228
599616086344379776,-219
599616086352066944,-181
599616086359753984,-181
599616086367441152,-193
599616086375128192,-188
599616086382815360,-197
599616086390502528,-219
599616086398189568,-212
599616086405876736,-188
599616086413563904,-207
599616086421250944,-247
599616086428938112,-266
599616086436625280,-259
599616086444312320,-252
599616086451999488,-266
599616086459686528,-280
599616086467373696,-270
599616086475060864,-254
599616086482747904,-273
599616086490435072,-325
599616086498122240,-341
599616086505809280,-325
599616086513496448,-334
599616086521183616,-360
599616086528870656,-379
599616086536557824,-384
599616086544244864,-367
599616086551932032,-355
599616086559619200,-391
599616086567306240,-504
599616086574993383,-631
599616086582680576,-508
599616086590367744,4
599616086598054784,506
599616086605741952,296
599616086613429120,-591
599616086621116160,-1116
599616086628803328,-907
599616086636490368,-647
599616086644177536,-527
599616086651864704,-384
599616086659551744,-365
599616086667238912,-426
599616086674926080,-409
599616086682613120,-395
599616086690300288,-433
599616086697987456,-440
599616086705674496,-421
599616086713361664,-419
599616086721048832,-417
599616086728735872,-409
599616086736423040,-407
599616086744110080,-400
599616086751797248,-384
599616086759484416,-369
599616086767171456,-358
599616086774858624,-343
599616086782545792,-329
599616086790232832,-325
599616086797920000,-327
599616086805607168,-325
599616086813294208,-322
599616086820981376,-329
599616086828668416,-346
599616086836355584,-369
599616086844042752,-398
599616086851729792,-428
599616086859416960,-468
599616086867104128,-511
599616086874791168,-548
599616086882478336,-588
599616086890165504,-626
599616086897852544,-645
599616086905539712,-654
599616086913226880,-671
599616086920913920,-669
599616086928601088,-659
599616086936288128,-666
599616086943975296,-671
599616086951662464,-666
599616086959349504,-671
599616086967036672,-676
599616086974723840,-678
599616086982410880,-680
599616086990098048,-671
599616086997785216,-652
599616087005472256,-640
599616087013159424,-626
599616087020846464,-617
599616087028533632,-617
599616087036220800,-610
599616087043907840,-598
599616087051595008,-584
599616087059282176,-574
599616087066969216,-574
599616087074656384,-577
599616087082343552,-572
599616087090030592,-574
599616087097717760,-584
599616087105404928,-591
599616087113091968,-605
599616087120779136,-612
599616087128466176,-612
599616087136153284,-614
599616087143840128,-612
599616087151526912,-596
599616087159213696,-593
599616087166900480,-591
599616087174587264,-574
599616087182274048,-567
599616087189960832,-574
599616087197647488,-570
599616087205334272,-570
599616087213021056,-584
599616087220707840,-572
599616087228394624,-539
599616087236081408,-501
599616087243768192,-468
599616087251454976,-454
599616087259141760,-447
599616087266828544,-440
599616087274515328,-461
599616087282202112,-490
599616087289888768,-494
599616087297575552,-494
599616087305262336,-487
599616087312949120,-485
599616087320635904,-508
599616087328322688,-480
599616087336009472,-414
599616087343696256,-438
599616087351383040,-530
599616087359069824,-640
599616087366756608,-647
599616087374443392,-266
599616087382130048,381
599616087389816832,563
599616087397503616,-124
599616087405190400,-925
599616087412877184,-961
599616087420563968,-647
599616087428250752,-523
599616087435937536,-372
599616087443624320,-226
599616087451311104,-259
599616087458997888,-303
599616087466684672,-296
599616087474371328,-287
599616087482058112,-226
599616087489744896,-171
599616087497431680,-181
599616087505118464,-195
599616087512805248,-212
599616087520492032,-254
599616087528178816,-247
599616087535865600,-200
599616087543552384,-181
599616087551239168,-127
599616087558925952,-84
599616087566612608,-129
599616087574299392,-153
599616087581986176,-143
599616087589672960,-193
599616087597359744,-207
599616087605046528,-155
599616087612733312,-141
599616087620420096,-117
599616087628106880,-124
599616087635793664,-193
599616087643480448,-233
599616087651167232,-280
599616087658854016,-360
599616087666540672,-417
599616087674227456,-435
599616087681914240,-459
599616087689601024,-475
599616087697287750,-466
599616087704974976,-433
599616087712662144,-419
599616087720349312,-447
599616087728036608,-445
599616087735723776,-433
599616087743410944,-461
599616087751098112,-454
599616087758785280,-376
599616087766472448,-339
599616087774159744,-379
599616087781846912,-398
599616087789534080,-395
599616087797221248,-409
599616087804908416,-407
599616087812595712,-353
599616087820282880,-296
599616087827970048,-310
599616087835657216,-351
599616087843344384,-341
599616087851031552,-322
599616087858718848,-325
599616087866406016,-334
599616087874093184,-346
599616087881780352,-343
599616087889467520,-322
599616087897154816,-318
599616087904841984,-332
599616087912529152,-332
599616087920216320,-320
599616087927903488,-318
599616087935590784,-315
599616087943277952,-310
599616087950965120,-320
599616087958652288,-325
599616087966339456,-313
599616087974026624,-306
599616087981713920,-296
599616087989401088,-275
599616087997088256,-259
599616088004775424,-245
599616088012462592,-252
599616088020149888,-289
599616088027837056,-310
599616088035524224,-296
599616088043211392,-292
599616088050898560,-301
599616088058585728,-299
599616088066273024,-289
599616088073960192,-294
599616088081647360,-301
599616088089334528,-299
599616088097021696,-367
599616088104708992,-527
599616088112396160,-501
599616088120083328,-35
599616088127770496,617
599616088135457664,760
599616088143144832,37
599616088150832128,-760
599616088158519296,-801
599616088166206464,-534
599616088173893632,-431
599616088181580800,-292
599616088189268096,-193
599616088196955264,-245
599616088204642432,-266
599616088212329600,-230
599616088220016768,-228
599616088227704064,-235
599616088235391232,-221
599616088243078400,-216
599616088250765568,-214
599616088258452734,-197
599616088266139776,-186
599616088273826816,-176
599616088281513728,-160
599616088289200768,-141
599616088296887680,-127
599616088304574720,-120
599616088312261632,-110
599616088319948672,-108
599616088327635584,-108
599616088335322624,-98
599616088343009664,-80
599616088350696576,-77
599616088358383616,-94
599616088366070528,-117
599616088373757568,-141
599616088381444480,-171
599616088389131520,-207
599616088396818432,-249
599616088404505472,-308
599616088412192384,-346
599616088419879424,-362
599616088427566464,-369
599616088435253376,-381
599616088442940416,-391
599616088450627328,-405
599616088458314368,-412
599616088466001280,-412
599616088473688320,-417
599616088481375232,-431
599616088489062272,-431
599616088496749312,-412
599616088504436224,-393
599616088512123264,-395
599616088519810176,-414
599616088527497216,-414
599616088535184128,-391
599616088542871168,-386
599616088550558080,-391
599616088558245120,-353
599616088565932032,-301
599616088573619072,-287
